18A Test,Moto Moto,Moto Moto,Run DMC,Run DMC,Fetty Wap,Fetty Wap
Time (ms),Voltage1 (V),Current1 (A),Voltage2 (V),Current2 (A),Voltage3 (V),Current3 (A)
622,12.707,18.027,12.373,18.027,12.682,18.028
1215,12.641,18.027,12.306,18.027,12.6,18.028
1788,12.591,18.027,12.257,18.027,12.55,18.028
2308,12.541,18.027,12.224,18.027,12.483,18.028
2891,12.491,18.027,12.174,18.027,12.434,18.028
3468,12.441,18.027,12.141,18.027,12.384,18.028
4055,12.408,18.027,12.108,18.027,12.334,18.028
4635,12.358,18.027,12.074,18.027,12.301,18.028
5166,12.325,18.027,12.058,18.027,12.268,18.028
5753,12.292,18.027,12.025,18.027,12.235,18.028
6331,12.275,18.027,12.008,18.027,12.201,18.028
6922,12.242,18.027,11.992,18.027,12.185,18.028
7468,12.225,18.027,11.975,18.027,12.168,18.028
8003,12.209,18.027,11.975,18.027,12.152,18.028
8555,12.192,18.027,11.958,18.027,12.135,18.028
9098,12.175,18.027,11.942,18.043,12.119,18.028
9698,12.159,18.027,12.572,0.003,12.102,18.028
10188,12.142,18.027,12.621,0.003,12.102,18.028
10730,12.142,18.027,12.638,0.02,12.085,18.028
11216,12.125,18.027,12.638,0.003,12.085,18.028
11760,12.125,18.027,12.654,0.003,12.069,18.028
12271,12.109,18.027,12.654,0.003,12.069,18.028
12755,12.109,18.027,12.671,0.003,12.069,18.028
13299,12.109,18.027,12.671,0.003,12.069,18.028
13791,12.092,18.027,12.671,0.003,12.069,18.028
14305,12.092,18.027,12.688,0.003,12.069,18.028
14813,12.092,18.027,12.688,0.003,12.069,18.028
15296,12.092,18.027,12.688,0.003,12.085,18.028
15805,12.092,18.027,12.688,0.003,12.085,18.028
16299,12.092,18.027,12.704,0.003,12.085,18.028
16843,12.092,18.027,12.704,0.003,12.102,18.028
17330,12.109,18.027,12.704,0.003,12.102,18.028
17842,12.109,18.027,12.704,0.003,12.102,18.028
18327,12.109,18.027,12.704,0.003,12.119,18.028
18840,12.109,18.027,12.721,0.003,12.119,18.028
19357,12.125,18.027,12.721,0.003,12.119,18.028
19865,12.125,18.027,12.721,0.003,12.135,18.028
20390,12.125,18.027,12.721,0.003,12.135,18.028
20868,12.125,18.027,12.721,0.003,12.135,18.028
21405,12.142,18.027,12.721,0.003,12.135,18.028
21889,12.142,18.027,12.721,0.003,12.152,18.028
22398,12.142,18.027,12.737,0.003,12.152,18.028
22875,12.142,18.027,12.737,0.003,12.152,18.028
23422,12.159,18.027,12.737,0.003,12.152,18.028
23936,12.159,18.027,12.737,0.003,12.152,18.028
24431,12.159,18.027,12.737,0.003,12.168,18.028
24938,12.159,18.027,12.737,0.003,12.168,18.028
25428,12.159,18.027,12.737,0.003,12.168,18.028
25964,12.175,18.027,12.754,0.003,12.168,18.028
26447,12.175,18.027,12.754,0.003,12.168,18.028
26955,12.175,18.027,12.754,0.003,12.168,18.028
27440,12.175,18.027,12.754,0.003,12.185,18.028
27967,12.175,18.027,12.754,0.003,12.185,18.028
28458,12.175,18.027,12.754,0.003,12.185,18.028
29009,12.175,18.027,12.754,0.003,12.185,18.028
29510,12.192,18.027,12.754,0.003,12.185,18.028
29999,12.192,18.027,12.754,0.003,12.185,18.028
30513,12.192,18.027,12.77,0.003,12.185,18.028
31004,12.192,18.027,12.77,0.003,12.185,18.028
31513,12.192,18.027,12.77,0.003,12.185,18.028
32004,12.192,18.027,12.77,0.003,12.201,18.028
32508,12.192,18.027,12.77,0.003,12.201,18.028
32984,12.192,18.027,12.77,0.003,12.201,18.028
33499,12.192,18.027,12.77,0.003,12.201,18.028
34010,12.192,18.027,12.77,0.003,12.201,18.028
34521,12.209,18.027,12.77,0.003,12.201,18.028
35032,12.209,18.027,12.787,0.003,12.201,18.028
35520,12.209,18.027,12.787,0.003,12.201,18.028
36033,12.209,18.027,12.787,0.003,12.201,18.028
36514,12.209,18.027,12.787,0.003,12.201,18.028
37027,12.209,18.027,12.787,0.003,12.201,18.028
37501,12.209,18.027,12.787,0.003,12.201,18.028
38016,12.209,18.027,12.787,0.003,12.201,18.028
38515,12.209,18.027,12.787,0.003,12.201,18.028
39023,12.209,18.027,12.787,0.003,12.201,18.028
39496,12.209,18.027,12.787,0.003,12.201,18.028
40016,12.209,18.027,12.787,0.003,12.218,18.028
40510,12.209,18.027,12.787,0.003,12.218,18.028
41024,12.209,18.027,12.787,0.003,12.218,18.028
41570,12.225,18.027,12.803,0.003,12.218,18.028
42055,12.225,18.027,12.803,0.003,12.218,18.028
42565,12.225,18.027,12.803,0.003,12.218,18.028
43055,12.225,18.027,12.803,0.003,12.218,18.028
43571,12.225,18.027,12.803,0.003,12.218,18.028
44056,12.225,18.027,12.803,0.003,12.218,18.028
44564,12.225,18.027,12.803,0.003,12.218,18.028
45056,12.225,18.027,12.803,0.003,12.218,18.028
45561,12.225,18.027,12.803,0.003,12.218,18.028
46052,12.225,18.027,12.803,0.003,12.218,18.028
46562,12.225,18.027,12.803,0.003,12.218,18.028
47056,12.225,18.027,12.803,0.003,12.218,18.028
47561,12.225,18.027,12.82,0.003,12.218,18.028
48057,12.225,18.027,12.82,0.003,12.218,18.028
48575,12.225,18.027,12.82,0.003,12.218,18.028
49063,12.225,18.027,12.82,0.003,12.218,18.028
49570,12.225,18.027,12.82,0.003,12.218,18.028
50056,12.225,18.027,12.82,0.003,12.218,18.028
50574,12.225,18.027,12.82,0.003,12.218,18.028
51053,12.225,18.027,12.82,0.003,12.218,18.028
51593,12.225,18.027,12.82,0.003,12.218,18.028
52119,12.225,18.027,12.82,0.003,12.218,18.028
52604,12.225,18.027,12.82,0.003,12.218,18.028
53118,12.225,18.027,12.82,0.003,12.218,18.028
53597,12.225,18.027,12.82,0.003,12.218,18.028
54111,12.225,18.027,12.82,0.003,12.218,18.028
54593,12.242,18.027,12.837,0.003,12.218,18.028
55138,12.242,18.027,12.837,0.003,12.218,18.028
55616,12.242,18.027,12.837,0.003,12.218,18.028
56135,12.242,18.027,12.837,0.003,12.218,18.028
56618,12.242,18.027,12.837,0.003,12.218,18.028
57133,12.242,18.027,12.837,0.003,12.218,18.028
57621,12.242,18.027,12.837,0.003,12.218,18.028
58130,12.242,18.027,12.837,0.003,12.235,18.028
58619,12.242,18.027,12.837,0.003,12.235,18.028
59134,12.242,18.027,12.837,0.003,12.235,18.028
59628,12.242,18.027,12.837,0.003,12.235,18.028
60151,12.242,18.027,12.837,0.003,12.235,18.028
60628,12.242,18.027,12.837,0.003,12.235,18.028
61139,12.242,18.027,12.837,0.003,12.235,18.028
61630,12.242,18.027,12.837,0.003,12.235,18.028
62140,12.242,18.027,12.853,0.003,12.235,18.028
62634,12.242,18.027,12.853,0.003,12.235,18.028
63147,12.242,18.027,12.853,0.003,12.235,18.028
63622,12.242,18.027,12.853,0.003,12.235,18.028
64135,12.242,18.027,12.853,0.003,12.235,18.028
64621,12.242,18.027,12.853,0.003,12.235,18.028
65165,12.242,18.027,12.853,0.003,12.235,18.028
65677,12.242,18.027,12.853,0.003,12.235,18.028
66167,12.242,18.027,12.853,0.003,12.235,18.028
66678,12.242,18.027,12.853,0.003,12.235,18.028
67170,12.242,18.027,12.853,0.003,12.235,18.028
67682,12.242,18.027,12.853,0.003,12.235,18.028
68173,12.242,18.027,12.853,0.003,12.235,18.028
68684,12.242,18.027,12.853,0.003,12.235,18.028
69169,12.242,18.027,12.853,0.003,12.235,18.028
69699,12.242,18.027,12.853,0.003,12.235,18.028
70185,12.242,18.027,12.853,0.003,12.235,18.028
70693,12.242,18.027,12.853,0.003,12.235,18.028
71182,12.242,18.027,12.853,0.003,12.235,18.028
71706,12.242,18.027,12.853,0.003,12.235,18.028
72201,12.242,18.027,12.87,0.003,12.235,18.028
72716,12.242,18.027,12.87,0.003,12.235,18.028
73212,12.242,18.027,12.87,0.003,12.235,18.028
73720,12.242,18.027,12.87,0.003,12.235,18.028
74203,12.242,18.027,12.87,0.003,12.235,18.028
74718,12.242,18.027,12.87,0.003,12.235,18.028
75228,12.242,18.027,12.87,0.003,12.235,18.028
75740,12.242,18.027,12.87,0.003,12.235,18.028
76251,12.242,18.027,12.87,0.003,12.235,18.028
76743,12.242,18.027,12.87,0.003,12.235,18.028
77255,12.242,18.027,12.87,0.003,12.235,18.028
77745,12.242,18.027,12.87,0.003,12.235,18.028
78253,12.242,18.027,12.87,0.003,12.235,18.028
78738,12.242,18.027,12.87,0.003,12.235,18.028
79251,12.242,18.027,12.87,0.003,12.235,18.028
79731,12.242,18.027,12.87,0.003,12.235,18.028
80256,12.242,18.027,12.87,0.003,12.235,18.028
80741,12.242,18.027,12.87,0.003,12.235,18.028
81290,12.242,18.027,12.87,0.003,12.235,18.028
81773,12.242,18.027,12.87,0.003,12.235,18.028
82287,12.258,18.027,12.886,0.003,12.235,18.028
82765,12.258,18.027,12.886,0.003,12.235,18.028
83273,12.258,18.027,12.886,0.003,12.235,18.028
83756,12.258,18.027,12.886,0.003,12.235,18.028
84282,12.258,18.027,12.886,0.003,12.235,18.028
84772,12.258,18.027,12.886,0.003,12.235,18.028
85283,12.258,18.027,12.886,0.003,12.235,18.028
85776,12.258,18.027,12.886,0.003,12.235,18.028
86279,12.258,18.027,12.886,0.003,12.235,18.028
86768,12.258,18.027,12.886,0.003,12.235,18.028
87276,12.258,18.027,12.886,0.003,12.235,18.028
87764,12.258,18.027,12.886,0.003,12.235,18.028
88298,12.258,18.027,12.886,0.003,12.235,18.028
88790,12.258,18.027,12.886,0.003,12.235,18.028
89307,12.258,18.027,12.886,0.003,12.235,18.028
89795,12.258,18.027,12.886,0.003,12.235,18.028
90317,12.258,18.027,12.886,0.003,12.235,18.028
90805,12.258,18.027,12.886,0.003,12.235,18.028
91337,12.258,18.027,12.886,0.003,12.235,18.028
91858,12.258,18.027,12.886,0.003,12.235,18.028
92350,12.258,18.027,12.886,0.003,12.235,18.028
92864,12.258,18.027,12.886,0.003,12.235,18.028
93357,12.258,18.027,12.886,0.003,12.235,18.028
93868,12.258,18.027,12.886,0.003,12.235,18.028
94357,12.258,18.027,12.903,0.003,12.235,18.028
94871,12.258,18.027,12.903,0.003,12.235,18.028
95354,12.258,18.027,12.903,0.003,12.235,18.028
95879,12.258,18.027,12.903,0.003,12.235,18.028
96382,12.258,18.027,12.903,0.003,12.235,18.028
96888,12.258,18.027,12.903,0.003,12.235,18.028
97403,12.258,18.027,12.903,0.003,12.235,18.028
97888,12.258,18.027,12.903,0.003,12.235,18.028
98403,12.258,18.027,12.903,0.003,12.235,18.028
98881,12.258,18.027,12.903,0.003,12.235,18.028
99405,12.258,18.027,12.903,0.003,12.235,18.028
99885,12.258,18.027,12.903,0.003,12.235,18.028
100394,12.258,18.027,12.903,0.003,12.235,18.028
100879,12.258,18.027,12.903,0.003,12.235,18.028
101422,12.258,18.027,12.903,0.003,12.235,18.028
101906,12.258,18.027,12.903,0.003,12.235,18.028
102414,12.258,18.027,12.903,0.003,12.235,18.028
102899,12.258,18.027,12.903,0.003,12.235,18.028
103412,12.258,18.027,12.903,0.003,12.235,18.028
103893,12.258,18.027,12.903,0.003,12.235,18.028
104418,12.258,18.027,12.903,0.003,12.235,18.028
104897,12.258,18.027,12.903,0.003,12.235,18.028
105421,12.258,18.027,12.903,0.003,12.235,18.028
105909,12.258,18.027,12.903,0.003,12.235,18.028
106430,12.258,18.027,12.919,0.003,12.235,18.028
106921,12.258,18.027,12.919,0.003,12.235,18.028
107430,12.258,18.027,12.919,0.003,12.235,18.028
107912,12.258,18.027,12.919,0.003,12.235,18.028
108435,12.258,18.027,12.919,0.003,12.235,18.028
108919,12.258,18.027,12.919,0.003,12.235,18.028
109431,12.258,18.027,12.919,0.003,12.235,18.028
109930,12.258,18.027,12.919,0.003,12.235,18.028
110447,12.258,18.027,12.919,0.003,12.235,18.028
110937,12.258,18.027,12.919,0.003,12.235,18.028
111481,12.258,18.027,12.919,0.003,12.235,18.028
111971,12.258,18.027,12.919,0.003,12.235,18.028
112500,12.258,18.027,12.919,0.003,12.235,18.028
113020,12.258,18.027,12.919,0.003,12.235,18.028
113503,12.258,18.027,12.919,0.003,12.235,18.028
114000,12.258,18.027,12.919,0.003,12.235,18.028
114489,12.258,18.027,12.919,0.003,12.235,18.028
115001,12.258,18.027,12.919,0.003,12.235,18.028
115485,12.258,18.027,12.919,0.003,12.235,18.028
116003,12.258,18.027,12.919,0.003,12.235,18.028
116492,12.258,18.027,12.919,0.003,12.235,18.028
117011,12.258,18.027,12.919,0.003,12.235,18.028
117505,12.258,18.027,12.919,0.003,12.235,18.028
118021,12.258,18.027,12.919,0.003,12.235,18.028
118501,12.258,18.027,12.919,0.003,12.235,18.028
119020,12.258,18.027,12.919,0.003,12.235,18.028
119511,12.258,18.027,12.919,0.003,12.235,18.028
120039,12.258,18.027,12.919,0.003,12.235,18.028
120519,12.258,18.027,12.919,0.003,12.235,18.028
121037,12.258,18.027,12.919,0.003,12.235,18.028
121525,12.258,18.027,12.919,0.003,12.235,18.028
122069,12.258,18.027,12.919,0.003,12.218,18.028
122582,12.258,18.027,12.936,0.003,12.218,18.028
123070,12.258,18.027,12.936,0.003,12.218,18.028
123587,12.258,18.027,12.936,0.003,12.218,18.028
124082,12.258,18.027,12.936,0.003,12.218,18.028
124594,12.258,18.027,12.936,0.003,12.218,18.028
125080,12.258,18.027,12.936,0.003,12.218,18.028
125597,12.258,18.027,12.936,0.003,12.218,18.028
126079,12.258,18.027,12.936,0.003,12.218,18.028
126591,12.258,18.027,12.936,0.003,12.218,18.028
127078,12.258,18.027,12.936,0.003,12.218,18.028
127593,12.258,18.027,12.936,0.003,12.218,18.028
128074,12.258,18.027,12.936,0.003,12.218,18.028
128584,12.258,18.027,12.936,0.003,12.218,18.028
129070,12.258,18.027,12.936,0.003,12.218,18.028
129582,12.258,18.027,12.936,0.003,12.218,18.028
130074,12.258,18.027,12.936,0.003,12.218,18.028
130597,12.258,18.027,12.936,0.003,12.218,18.028
131092,12.258,18.027,12.936,0.003,12.218,18.028
131609,12.258,18.027,12.936,0.003,12.218,18.028
132133,12.258,18.027,12.936,0.003,12.218,18.028
132653,12.258,18.027,12.936,0.003,12.218,18.028
133166,12.258,18.027,12.936,0.003,12.218,18.028
133658,12.258,18.027,12.936,0.003,12.218,18.028
134174,12.258,18.027,12.936,0.003,12.218,18.028
134660,12.258,18.027,12.936,0.003,12.218,18.028
135185,12.258,18.027,12.936,0.003,12.218,18.028
135678,12.258,18.027,12.936,0.003,12.218,18.028
136204,12.258,18.027,12.936,0.003,12.218,18.028
136697,12.258,18.027,12.936,0.003,12.218,18.028
137206,12.258,18.027,12.936,0.003,12.218,18.028
137691,12.258,18.027,12.936,0.003,12.218,18.028
138202,12.258,18.027,12.936,0.003,12.218,18.028
138692,12.258,18.027,12.936,0.003,12.218,18.028
139210,12.258,18.027,12.953,0.003,12.218,18.028
139701,12.258,18.027,12.953,0.003,12.218,18.028
140222,12.258,18.027,12.953,0.003,12.218,18.028
140707,12.258,18.027,12.953,0.003,12.218,18.028
141208,12.258,18.027,12.953,0.003,12.218,18.028
141695,12.258,18.027,12.953,0.003,12.218,18.028
142239,12.258,18.027,12.953,0.003,12.218,18.028
142723,12.258,18.027,12.953,0.003,12.218,18.028
143246,12.258,18.027,12.953,0.003,12.218,18.028
143763,12.258,18.027,12.953,0.003,12.218,18.028
144256,12.258,18.027,12.953,0.003,12.218,18.028
144762,12.258,18.027,12.953,0.003,12.218,18.028
145253,12.258,18.027,12.953,0.003,12.218,18.028
145763,12.258,18.027,12.953,0.003,12.218,18.028
146257,12.258,18.027,12.953,0.003,12.218,18.028
146774,12.258,18.027,12.953,0.003,12.218,18.028
147259,12.258,18.027,12.953,0.003,12.218,18.028
147779,12.258,18.027,12.953,0.003,12.218,18.028
148279,12.258,18.027,12.953,0.003,12.218,18.028
148795,12.258,18.027,12.953,0.003,12.218,18.028
149280,12.258,18.027,12.953,0.003,12.218,18.028
149789,12.258,18.027,12.953,0.003,12.218,18.028
150281,12.258,18.027,12.953,0.003,12.218,18.028
150798,12.258,18.027,12.953,0.003,12.218,18.028
151290,12.258,18.027,12.953,0.003,12.218,18.028
151800,12.258,18.027,12.953,0.003,12.218,18.028
152291,12.258,18.027,12.953,0.003,12.218,18.028
152842,12.258,18.027,12.953,0.003,12.218,18.028
153370,12.258,18.027,12.953,0.003,12.218,18.028
153851,12.258,18.027,12.953,0.003,12.218,18.028
154361,12.258,18.027,12.953,0.003,12.218,18.028
154852,12.258,18.027,12.953,0.003,12.218,18.028
155369,12.258,18.027,12.953,0.003,12.218,18.028
155871,12.258,18.027,12.953,0.003,12.218,18.028
156396,12.258,18.027,12.953,0.003,12.218,18.028
156870,12.258,18.027,12.953,0.003,12.218,18.028
157394,12.258,18.027,12.953,0.003,12.218,18.028
157880,12.258,18.027,12.953,0.003,12.218,18.028
158390,12.258,18.027,12.953,0.003,12.218,18.028
158865,12.258,18.027,12.953,0.003,12.218,18.028
159375,12.258,18.027,12.969,0.003,12.218,18.028
159862,12.258,18.027,12.969,0.003,12.218,18.028
160384,12.258,18.027,12.969,0.003,12.218,18.028
160868,12.258,18.027,12.969,0.003,12.218,18.028
161383,12.258,18.027,12.969,0.003,12.218,18.028
161864,12.258,18.027,12.969,0.003,12.218,18.028
162412,12.258,18.027,12.969,0.003,12.218,18.028
162906,12.258,18.027,12.969,0.003,12.218,18.028
163408,12.258,18.027,12.969,0.003,12.218,18.028
163893,12.258,18.027,12.969,0.003,12.218,18.028
164424,12.258,18.027,12.969,0.003,12.218,18.028
164911,12.258,18.027,12.969,0.003,12.218,18.028
165433,12.258,18.027,12.969,0.003,12.201,18.028
165930,12.258,18.027,12.969,0.003,12.201,18.028
166438,12.258,18.027,12.969,0.003,12.201,18.028
166927,12.258,18.027,12.969,0.003,12.201,18.028
167427,12.258,18.027,12.969,0.003,12.201,18.028
167914,12.258,18.027,12.969,0.003,12.201,18.028
168437,12.258,18.027,12.969,0.003,12.201,18.028
168927,12.258,18.027,12.969,0.003,12.201,18.028
169451,12.258,18.027,12.969,0.003,12.201,18.028
169934,12.258,18.027,12.969,0.003,12.201,18.028
170447,12.258,18.027,12.969,0.003,12.201,18.028
170933,12.258,18.027,12.969,0.003,12.201,18.028
171447,12.258,18.027,12.969,0.003,12.201,18.028
171933,12.258,18.027,12.969,0.003,12.201,18.028
172486,12.258,18.027,12.969,0.003,12.201,18.028
172975,12.258,18.027,12.969,0.003,12.201,18.028
173482,12.258,18.027,12.969,0.003,12.201,18.028
173995,12.258,18.027,12.969,0.003,12.201,18.028
174482,12.258,18.027,12.969,0.003,12.201,18.028
174992,12.258,18.027,12.969,0.003,12.201,18.028
175470,12.258,18.027,12.969,0.003,12.201,18.028
175983,12.258,18.027,12.969,0.003,12.201,18.028
176485,12.258,18.027,12.969,0.003,12.201,18.028
176989,12.258,18.027,12.969,0.003,12.201,18.028
177486,12.258,18.027,12.969,0.003,12.201,18.028
177996,12.258,18.027,12.969,0.003,12.201,18.028
178473,12.258,18.027,12.969,0.003,12.201,18.028
178990,12.258,18.027,12.969,0.003,12.201,18.028
179476,12.258,18.027,12.986,0.003,12.201,18.028
179981,12.258,18.027,12.986,0.003,12.201,18.028
180477,12.258,18.027,12.986,0.003,12.201,18.028
180993,12.258,18.027,12.986,0.003,12.201,18.028
181481,12.258,18.027,12.986,0.003,12.201,18.028
181988,12.258,18.027,12.986,0.003,12.201,18.028
182472,12.258,18.027,12.986,0.003,12.201,18.028
183017,12.258,18.027,12.986,0.003,12.201,18.028
183529,12.258,18.027,12.986,0.003,12.201,18.028
184008,12.258,18.027,12.986,0.003,12.201,18.028
184523,12.258,18.027,12.986,0.003,12.201,18.028
185008,12.258,18.027,12.986,0.003,12.201,18.028
185522,12.258,18.027,12.986,0.003,12.201,18.028
186012,12.258,18.027,12.986,0.003,12.201,18.028
186536,12.258,18.027,12.986,0.003,12.201,18.028
187015,12.258,18.027,12.986,0.003,12.201,18.028
187524,12.258,18.027,12.986,0.003,12.201,18.028
188011,12.258,18.027,12.986,0.003,12.201,18.028
188530,12.258,18.027,12.986,0.003,12.201,18.028
189021,12.258,18.027,12.986,0.003,12.201,18.028
189545,12.258,18.027,12.986,0.003,12.201,18.028
190038,12.258,18.027,12.986,0.003,12.201,18.028
190542,12.258,18.027,12.986,0.003,12.201,18.028
191017,12.258,18.027,12.986,0.003,12.201,18.028
191533,12.258,18.027,12.986,0.003,12.201,18.028
192012,12.258,18.027,12.986,0.003,12.201,18.028
192522,12.258,18.027,12.986,0.003,12.201,18.028
193039,12.258,18.027,12.986,0.003,12.201,18.028
193555,12.258,18.027,12.986,0.003,12.201,18.028
194077,12.258,18.027,12.986,0.003,12.201,18.028
194555,12.258,18.027,12.986,0.003,12.201,18.028
195063,12.258,18.027,12.986,0.003,12.201,18.028
195549,12.258,18.027,12.986,0.003,12.201,18.028
196054,12.258,18.027,12.986,0.003,12.185,18.028
196549,12.258,18.027,12.986,0.003,12.185,18.028
197068,12.258,18.027,12.986,0.003,12.185,18.028
197552,12.258,18.027,12.986,0.003,12.185,18.028
198062,12.258,18.027,12.986,0.003,12.185,18.028
198544,12.258,18.027,12.986,0.003,12.185,18.028
199055,12.258,18.027,12.986,0.003,12.185,18.028
199539,12.258,18.027,12.986,0.003,12.185,18.028
200062,12.258,18.027,12.986,0.003,12.185,18.028
200556,12.258,18.027,12.986,0.003,12.185,18.028
201063,12.258,18.027,12.986,0.003,12.185,18.028
201551,12.258,18.027,12.986,0.003,12.185,18.028
202068,12.258,18.027,12.986,0.003,12.185,18.028
202546,12.258,18.027,12.986,0.003,12.185,18.028
203089,12.258,18.027,12.986,0.003,12.185,18.028
203571,12.258,18.027,12.986,0.003,12.185,18.028
204083,12.258,18.027,12.986,0.003,12.185,18.028
204580,12.258,18.027,12.986,0.003,12.185,18.028
205087,12.258,18.027,12.986,0.003,12.185,18.028
205603,12.258,18.027,12.986,0.003,12.185,18.028
206080,12.258,18.027,12.986,0.003,12.185,18.028
206582,12.258,18.027,12.986,0.003,12.185,18.028
207072,12.258,18.027,12.986,0.003,12.185,18.028
207583,12.258,18.027,12.986,0.003,12.185,18.028
208071,12.258,18.027,12.986,0.003,12.185,18.028
208586,12.258,18.027,13.002,0.003,12.185,18.028
209082,12.258,18.027,13.002,0.003,12.185,18.028
209606,12.258,18.027,13.002,0.003,12.185,18.028
210083,12.258,18.027,13.002,0.003,12.185,18.028
210586,12.258,18.027,13.002,0.003,12.185,18.028
211070,12.258,18.027,13.002,0.003,12.185,18.028
211566,12.258,18.027,13.002,0.003,12.185,18.028
