18A Test,P Diddy,P Diddy,E160520BC,E160520BC,170710F,170710F
Time (ms),Voltage1 (V),Current1 (A),Voltage2 (V),Current2 (A),Voltage3 (V),Current3 (A)
608,12.757,18.027,12.273,18.027,12.417,18.028
1131,12.674,18.027,12.19,18.027,12.334,18.028
1706,12.608,18.027,12.124,18.027,12.268,18.028
2281,12.541,18.027,12.074,18.027,12.201,18.028
2866,12.491,18.027,12.025,18.027,12.168,18.028
3462,12.441,18.027,11.975,18.027,12.119,18.028
3994,12.391,18.027,11.942,18.027,12.085,18.028
4577,12.342,18.027,11.925,18.027,12.052,18.028
5162,12.308,18.027,11.909,18.027,12.019,18.028
5741,12.275,18.027,11.892,18.027,12.002,18.028
6233,12.242,18.027,11.876,18.027,11.986,18.028
6831,12.225,18.027,11.859,18.027,11.969,18.028
7440,12.192,18.027,11.859,18.027,11.953,18.028
7993,12.175,18.027,11.842,18.027,11.953,18.028
8552,12.159,18.027,11.842,18.027,11.936,18.028
9055,12.142,18.027,11.842,18.027,11.936,18.028
9618,12.125,18.027,11.826,18.027,11.936,18.028
10176,12.125,18.027,11.826,18.027,11.936,18.028
10676,12.109,18.027,11.826,18.027,11.936,18.028
11245,12.109,18.027,11.826,18.027,11.953,18.028
11769,12.092,18.027,11.826,18.027,11.953,18.028
12288,12.092,18.027,11.826,18.027,11.953,18.028
12829,12.076,18.027,11.826,18.027,11.953,18.028
13340,12.076,18.027,11.826,18.027,11.969,18.028
13860,12.076,18.027,11.842,18.027,11.969,18.028
14391,12.059,18.027,11.842,18.027,11.969,18.028
14911,12.059,18.027,11.842,18.027,11.986,18.028
15443,12.059,18.027,11.842,18.027,11.986,18.028
15934,12.059,18.027,11.842,18.027,11.986,18.028
16458,12.059,18.027,11.842,18.027,11.986,18.028
16952,12.059,18.027,11.842,18.027,11.986,18.028
17501,12.042,18.027,11.859,18.027,12.002,18.028
18023,12.042,18.027,11.859,18.027,12.002,18.028
18522,12.042,18.027,11.859,18.027,12.002,18.028
19063,12.042,18.027,11.859,18.027,12.002,18.028
19563,12.042,18.027,11.859,18.027,12.002,18.028
20086,12.042,18.027,11.859,18.027,12.002,18.028
20584,12.042,18.027,11.859,18.027,12.019,18.028
21104,12.042,18.027,11.859,18.027,12.019,18.028
21607,12.042,18.027,11.859,18.027,12.019,18.028
22127,12.042,18.027,11.859,18.027,12.019,18.028
22625,12.042,18.027,11.876,18.027,12.019,18.028
23141,12.042,18.027,11.876,18.027,12.019,18.028
23638,12.042,18.027,11.876,18.027,12.019,18.028
24206,12.042,18.027,11.876,18.027,12.019,18.028
24710,12.026,18.027,11.876,18.027,12.036,18.028
25223,12.026,18.027,11.876,18.027,12.036,18.028
25725,12.026,18.027,11.876,18.027,12.036,18.028
26244,12.026,18.027,11.876,18.027,12.036,18.028
26742,12.026,18.027,11.876,18.027,12.036,18.028
27269,12.026,18.027,11.876,18.027,12.036,18.028
27774,12.026,18.027,11.876,18.027,12.036,18.011
28298,12.026,18.027,11.876,18.027,12.036,18.028
28842,12.026,18.027,11.892,18.027,12.036,18.028
29344,12.026,18.027,11.892,18.027,12.036,18.028
29851,12.026,18.027,11.892,18.027,12.036,18.028
30345,12.026,18.027,11.892,18.027,12.036,18.028
30873,12.026,18.027,11.892,18.027,12.036,18.011
31382,12.026,18.027,11.892,18.027,12.036,18.028
31908,12.026,18.027,11.892,18.027,12.052,18.028
32407,12.026,18.027,11.892,18.027,12.052,18.028
32950,12.042,18.027,11.892,18.027,12.052,18.028
33445,12.042,18.027,11.892,18.027,12.052,18.011
33979,12.042,18.027,11.892,18.027,12.052,18.028
34482,12.042,18.027,11.892,18.027,12.052,18.028
35019,12.042,18.027,11.892,18.027,12.052,18.011
35521,12.042,18.027,11.892,18.027,12.052,18.028
36060,12.042,18.027,11.892,18.027,12.052,18.028
36562,12.042,18.027,11.892,18.027,12.052,18.028
37088,12.042,18.027,11.892,18.027,12.052,18.028
37612,12.042,18.027,11.892,18.027,12.052,18.028
38110,12.042,18.027,11.892,18.027,12.052,18.011
38621,12.042,18.027,11.892,18.027,12.052,18.028
39110,12.042,18.027,11.909,18.027,12.052,18.028
39640,12.042,18.027,11.909,18.027,12.052,18.028
40131,12.042,18.027,11.909,18.027,12.052,18.028
40653,12.042,18.027,11.909,18.027,12.052,18.028
41158,12.042,18.027,11.909,18.027,12.052,18.028
41684,12.042,18.027,11.909,18.027,12.052,18.028
42176,12.042,18.027,11.909,18.027,12.052,18.028
42734,12.042,18.027,11.909,18.027,12.052,18.028
43261,12.042,18.027,11.909,18.027,12.052,18.028
43775,12.059,18.027,11.909,18.027,12.052,18.028
44305,12.059,18.027,11.909,18.027,12.052,18.028
44805,12.059,18.027,11.909,18.027,12.052,18.028
45336,12.059,18.027,11.909,18.027,12.052,18.028
45823,12.059,18.027,11.909,18.027,12.069,18.028
46351,12.059,18.027,11.909,18.027,12.069,18.028
46843,12.059,18.027,11.909,18.027,12.069,18.028
47383,12.059,18.027,11.909,18.027,12.069,18.028
47879,12.059,18.027,11.909,18.027,12.069,18.028
48403,12.059,18.027,11.909,18.027,12.069,18.011
48901,12.059,18.027,11.909,18.027,12.069,18.028
49431,12.059,18.027,11.909,18.027,12.069,18.028
49927,12.059,18.027,11.909,18.027,12.069,18.028
50450,12.059,18.027,11.909,18.027,12.069,18.028
50940,12.059,18.027,11.909,18.027,12.069,18.028
51470,12.059,18.027,11.909,18.027,12.069,18.028
51960,12.059,18.027,11.909,18.027,12.069,18.028
52481,12.059,18.027,11.925,18.027,12.069,18.028
52981,12.059,18.027,11.925,18.027,12.069,18.028
53540,12.059,18.027,11.925,18.027,12.069,18.028
54073,12.059,18.027,11.925,18.027,12.069,18.011
54603,12.076,18.027,11.925,18.027,12.069,18.028
55124,12.076,18.027,11.925,18.027,12.069,18.028
55629,12.076,18.027,11.925,18.027,12.069,18.011
56152,12.076,18.027,11.925,18.027,12.069,18.011
56636,12.076,18.027,11.925,18.027,12.069,18.028
57153,12.076,18.027,11.925,18.027,12.069,18.011
57650,12.076,18.027,11.925,18.027,12.069,18.028
58173,12.076,18.027,11.925,18.027,12.069,18.028
58673,12.076,18.027,11.925,18.027,12.069,18.011
59213,12.076,18.027,11.925,18.027,12.069,18.011
59744,12.076,18.027,11.925,18.027,12.069,18.028
60240,12.076,18.027,11.925,18.027,12.069,18.028
60762,12.076,18.027,11.925,18.027,12.069,18.028
61269,12.076,18.027,11.925,18.027,12.069,18.028
61795,12.076,18.027,11.925,18.027,12.069,18.011
62291,12.076,18.027,11.925,18.027,12.069,18.011
62832,12.076,18.027,11.925,18.027,12.069,18.011
63337,12.076,18.027,11.925,18.027,12.069,18.028
63859,12.076,18.027,11.925,18.027,12.069,18.028
64349,12.076,18.027,11.925,18.027,12.069,18.028
64903,12.076,18.027,11.925,18.027,12.069,18.011
65425,12.076,18.027,11.925,18.027,12.069,18.028
65920,12.076,18.027,11.925,18.027,12.069,18.011
66436,12.076,18.027,11.925,18.027,12.069,18.028
66943,12.076,18.027,11.925,18.027,12.069,18.011
67473,12.076,18.027,11.925,18.027,12.069,18.011
67968,12.076,18.027,11.925,18.027,12.069,18.028
68496,12.076,18.027,11.925,18.027,12.069,18.011
68999,12.076,18.027,11.925,18.027,12.069,18.011
69518,12.076,18.027,11.925,18.027,12.069,18.011
70013,12.076,18.027,11.925,18.027,12.069,18.028
70546,12.076,18.027,11.925,18.027,12.069,18.011
71045,12.076,18.027,11.925,18.027,12.069,18.011
71606,12.076,18.027,11.925,18.027,12.069,18.011
72106,12.092,18.027,11.925,18.027,12.069,18.011
72640,12.092,18.027,11.925,18.027,12.069,18.011
73132,12.092,18.027,11.925,18.027,12.069,18.011
73655,12.092,18.027,11.925,18.027,12.069,18.011
74142,12.092,18.027,11.925,18.027,12.069,18.028
74675,12.092,18.027,11.925,18.027,12.069,18.011
75172,12.092,18.027,11.925,18.027,12.069,18.011
75693,12.092,18.027,11.925,18.027,12.069,18.011
76214,12.092,18.027,11.925,18.027,12.069,18.011
76716,12.092,18.027,11.925,18.027,12.069,18.011
77243,12.092,18.027,11.925,18.027,12.069,18.011
77744,12.092,18.027,11.925,18.027,12.069,18.011
78276,12.092,18.027,11.925,18.027,12.069,18.011
78783,12.092,18.027,11.925,18.027,12.069,18.011
79309,12.092,18.027,11.925,18.027,12.069,18.011
79801,12.092,18.027,11.925,18.027,12.069,18.011
80323,12.092,18.027,11.925,18.027,12.069,18.011
80822,12.092,18.027,11.925,18.027,12.069,18.011
81332,12.092,18.027,11.925,18.027,12.069,18.011
81860,12.092,18.027,11.925,18.027,12.069,18.011
82385,12.092,18.027,11.925,18.027,12.069,18.011
82877,12.092,18.027,11.942,18.027,12.069,18.011
83420,12.092,18.027,11.925,18.027,12.069,18.011
83939,12.092,18.027,11.942,18.027,12.069,18.011
84442,12.092,18.027,11.942,18.027,12.069,18.011
84963,12.092,18.027,11.942,18.027,12.069,18.011
85454,12.092,18.027,11.942,18.027,12.069,18.011
85971,12.092,18.027,11.942,18.027,12.069,18.011
86475,12.092,18.027,11.942,18.027,12.069,18.011
87000,12.092,18.027,11.942,18.027,12.069,18.011
87506,12.092,18.027,11.942,18.027,12.069,18.011
88026,12.092,18.027,11.942,18.027,12.069,18.011
88527,12.092,18.027,11.942,18.027,12.069,18.011
89045,12.092,18.027,11.942,18.027,12.069,18.011
89544,12.092,18.027,11.942,18.027,12.069,18.011
90076,12.092,18.027,11.942,18.027,12.069,18.011
90574,12.092,18.027,11.942,18.027,12.069,18.011
91095,12.092,18.027,11.942,18.027,12.069,18.011
91605,12.092,18.027,11.942,18.027,12.069,18.011
92161,12.092,18.027,11.942,18.027,12.069,18.011
92679,12.092,18.027,11.942,18.027,12.069,18.011
93179,12.092,18.027,11.942,18.027,12.069,18.011
93705,12.092,18.027,11.942,18.027,12.069,18.011
94199,12.092,18.027,11.942,18.027,12.069,18.011
94727,12.092,18.027,11.942,18.027,12.069,18.011
95229,12.092,18.027,11.942,18.027,12.069,18.011
95762,12.092,18.027,11.942,18.027,12.069,18.011
96288,12.092,18.027,11.942,18.027,12.069,18.011
96781,12.092,18.027,11.942,18.027,12.069,18.011
97317,12.092,18.027,11.942,18.027,12.069,18.011
97816,12.092,18.027,11.942,18.027,12.069,18.011
98335,12.092,18.027,11.942,18.027,12.069,18.011
98843,12.092,18.027,11.942,18.027,12.069,18.011
99371,12.092,18.027,11.942,18.027,12.069,18.011
99865,12.092,18.027,11.942,18.027,12.069,18.011
100400,12.092,18.027,11.942,18.027,12.069,18.011
100905,12.092,18.027,11.942,18.027,12.069,18.011
101431,12.092,18.027,11.942,18.027,12.069,18.011
101966,12.092,18.027,11.942,18.027,12.069,18.011
102494,12.092,18.027,11.942,18.027,12.069,18.011
102991,12.092,18.027,11.942,18.027,12.069,18.011
103516,12.092,18.027,11.942,18.027,12.069,18.011
104010,12.092,18.027,11.942,18.027,12.069,18.011
104544,12.092,18.027,11.942,18.027,12.069,18.011
105045,12.092,18.027,11.942,18.027,12.069,18.011
105570,12.092,18.027,11.942,18.027,12.069,18.011
106073,12.092,18.027,11.942,18.027,12.069,18.011
106597,12.092,18.027,11.942,18.027,12.069,18.011
107100,12.092,18.027,11.942,18.027,12.069,18.011
107651,12.092,18.027,11.942,18.027,12.069,18.011
108140,12.092,18.027,11.942,18.027,12.069,18.011
108664,12.092,18.027,11.942,18.027,12.069,18.011
109162,12.092,18.027,11.942,18.027,12.069,18.011
109691,12.092,18.027,11.942,18.027,12.069,18.011
110188,12.092,18.027,11.942,18.027,12.069,18.011
110725,12.092,18.027,11.942,18.027,12.069,18.011
111229,12.092,18.027,11.942,18.027,12.069,18.011
111747,12.092,18.027,11.942,18.027,12.069,18.011
112267,12.092,18.027,11.942,18.027,12.069,18.011
112784,12.092,18.027,11.942,18.027,12.069,18.011
113308,12.092,18.027,11.942,18.027,12.069,18.011
113818,12.092,18.027,11.942,18.027,12.069,18.011
114356,12.092,18.027,11.942,18.027,12.069,18.011
114853,12.092,18.027,11.942,18.027,12.069,18.011
115400,12.092,18.027,11.942,18.027,12.069,18.011
115896,12.092,18.027,11.942,18.027,12.069,18.011
116422,12.092,18.027,11.942,18.027,12.069,18.011
116923,12.092,18.027,11.942,18.027,12.069,18.011
117450,12.092,18.027,11.942,18.027,12.069,18.011
117946,12.092,18.027,11.942,18.027,12.069,18.011
118463,12.092,18.027,11.942,18.027,12.069,18.011
118970,12.092,18.027,11.942,18.027,12.069,18.011
119512,12.092,18.027,11.942,18.027,12.069,18.011
120052,12.092,18.027,11.942,18.027,12.069,18.011
120549,12.092,18.027,11.942,18.027,12.069,18.011
121075,12.092,18.027,11.942,18.027,12.069,18.011
121583,12.092,18.027,11.942,18.027,12.069,18.011
122149,12.092,18.027,11.942,18.027,12.069,18.011
122670,12.092,18.027,11.942,18.027,12.069,18.011
123166,12.092,18.027,11.942,18.027,12.069,18.011
123703,12.092,18.027,11.942,18.027,12.069,18.011
124200,12.092,18.027,11.942,18.027,12.069,18.011
124725,12.092,18.027,11.942,18.027,12.069,18.011
125228,12.092,18.027,11.942,18.027,12.069,18.011
125752,12.092,18.027,11.942,18.027,12.069,18.011
126246,12.092,18.027,11.942,18.027,12.069,18.011
126767,12.092,18.027,11.942,18.027,12.069,18.011
127284,12.092,18.027,11.942,18.027,12.069,18.011
127815,12.092,18.027,11.942,18.027,12.069,18.011
128343,12.092,18.027,11.942,18.027,12.069,18.011
128841,12.092,18.027,11.942,18.027,12.069,18.011
129388,12.092,18.027,11.942,18.027,12.069,18.011
129882,12.109,18.027,11.942,18.027,12.069,18.011
130440,12.125,18.027,11.942,18.027,12.069,18.011
130967,12.125,18.027,11.942,18.027,12.069,18.011
131477,12.125,18.027,11.942,18.027,12.069,18.011
131991,12.125,18.027,11.942,18.027,12.069,18.011
132485,12.125,18.027,11.942,18.027,12.069,18.011
133014,12.125,18.027,11.942,18.027,12.069,18.011
133506,12.125,18.027,11.942,18.027,12.069,18.011
134030,12.125,18.027,11.942,18.027,12.069,18.011
134527,12.125,18.027,11.942,18.027,12.069,18.011
135053,12.125,18.027,11.942,18.027,12.069,18.011
135573,12.125,18.027,11.942,18.027,12.069,18.011
136091,12.125,18.027,11.942,18.027,12.069,18.011
136596,12.125,18.027,11.942,18.027,12.069,18.011
137117,12.125,18.027,11.942,18.027,12.069,18.011
137619,12.125,18.027,11.942,18.027,12.069,18.011
138144,12.125,18.027,11.942,18.027,12.069,18.011
138635,12.125,18.027,11.942,18.027,12.069,18.011
139150,12.125,18.027,11.942,18.027,12.069,18.011
139642,12.125,18.027,11.942,18.027,12.069,18.011
140193,12.125,18.027,11.942,18.027,12.069,18.011
140716,12.125,18.027,11.942,18.027,12.069,18.011
141212,12.125,18.027,11.942,18.027,12.069,18.011
141729,12.125,18.027,11.942,18.027,12.069,18.011
142236,12.125,18.027,11.942,18.027,12.069,18.011
142758,12.125,18.027,11.942,18.027,12.069,18.011
143268,12.125,18.027,11.942,18.027,12.069,18.011
143787,12.125,18.027,11.942,18.027,12.069,18.011
144296,12.125,18.027,11.942,18.027,12.069,18.011
144819,12.125,18.027,11.942,18.027,12.069,18.011
145320,12.125,18.027,11.942,18.027,12.069,18.011
145851,12.125,18.027,11.942,18.027,12.069,18.011
146353,12.125,18.027,11.942,18.027,12.069,18.011
146887,12.125,18.027,11.942,18.027,12.069,18.011
147394,12.125,18.027,11.942,18.027,12.069,18.011
147915,12.125,18.027,11.942,18.027,12.069,18.011
148440,12.125,18.027,11.942,18.027,12.069,18.011
148932,12.125,18.027,11.942,18.027,12.069,18.011
149462,12.125,18.027,11.942,18.027,12.069,18.011
149962,12.125,18.027,11.942,18.027,12.069,18.011
150520,12.125,18.027,11.942,18.027,12.069,18.011
151054,12.125,18.027,11.942,18.027,12.069,18.011
151556,12.125,18.027,11.942,18.027,12.069,18.011
152068,12.125,18.027,11.942,18.027,12.069,18.011
152559,12.125,18.027,11.942,18.027,12.069,18.011
153083,12.125,18.027,11.942,18.027,12.069,18.011
153577,12.125,18.027,11.942,18.027,12.069,18.011
154095,12.125,18.027,11.942,18.027,12.069,18.011
154596,12.125,18.027,11.942,18.027,12.069,18.011
155120,12.125,18.027,11.942,18.027,12.069,18.011
155631,12.125,18.027,11.942,18.027,12.069,18.011
156157,12.125,18.027,11.942,18.027,12.069,18.011
156651,12.125,18.027,11.942,18.027,12.052,18.011
157180,12.125,18.027,11.942,18.027,12.052,18.011
157704,12.125,18.027,11.942,18.027,12.052,18.011
158217,12.125,18.027,11.942,18.027,12.052,18.011
158743,12.125,18.027,11.942,18.027,12.052,18.011
159257,12.125,18.027,11.942,18.027,12.052,18.011
159783,12.125,18.027,11.942,18.027,12.052,18.011
160336,12.109,18.027,11.942,18.027,12.052,18.011
160826,12.109,18.027,11.942,18.027,12.052,18.011
161356,12.109,18.027,11.942,18.027,12.052,18.011
161859,12.109,18.027,11.942,18.027,12.052,18.011
162382,12.109,18.027,11.942,18.027,12.052,18.011
162880,12.109,18.027,11.942,18.027,12.052,18.011
163418,12.109,18.027,11.942,18.027,12.052,18.011
163935,12.109,18.027,11.942,18.027,12.052,18.011
164469,12.109,18.027,11.942,18.027,12.052,18.011
165033,12.109,18.027,11.942,18.027,12.052,18.011
165611,12.109,18.027,11.942,18.027,12.052,18.011
166127,12.109,18.027,11.942,18.027,12.052,18.011
166644,12.125,18.027,11.942,18.027,12.052,18.011
167192,12.109,18.027,11.942,18.027,12.052,18.011
167699,12.125,18.027,11.942,18.027,12.052,18.011
168285,12.109,18.027,11.942,18.027,12.052,18.011
168829,12.125,18.027,11.942,18.027,12.052,18.011
169322,12.125,18.027,11.942,18.027,12.052,18.011
169845,12.109,18.027,11.942,18.027,12.052,18.011
170347,12.125,18.027,11.942,18.027,12.052,18.011
170875,12.125,18.027,11.942,18.027,12.052,18.011
171387,12.125,18.027,11.942,18.027,12.052,18.011
171978,12.109,18.027,11.942,18.027,12.052,18.011
172533,12.125,18.027,11.942,18.027,12.052,18.011
173027,12.109,18.027,11.942,18.027,12.052,18.011
173552,12.109,18.027,11.942,18.027,12.052,18.011
174120,12.125,18.027,11.942,18.027,12.052,18.011
174621,12.109,18.027,11.942,18.027,12.052,18.011
175150,12.109,18.027,11.942,18.027,12.052,18.011
175656,12.109,18.027,11.942,18.027,12.052,18.011
176176,12.109,18.027,11.942,18.027,12.052,18.011
176677,12.109,18.027,11.942,18.027,12.052,18.011
177192,12.109,18.027,11.942,18.027,12.052,18.011
177688,12.109,18.027,11.942,18.027,12.052,18.011
178220,12.109,18.027,11.942,18.027,12.052,18.011
178729,12.109,18.027,11.942,18.027,12.052,18.011
179247,12.109,18.027,11.942,18.027,12.052,18.011
179751,12.109,18.027,11.942,18.027,12.052,18.011
180274,12.109,18.027,11.942,18.027,12.052,18.011
180797,12.109,18.027,11.942,18.027,12.052,18.011
181305,12.109,18.027,11.942,18.027,12.052,18.011
181828,12.109,18.027,11.942,18.027,12.052,18.011
182321,12.109,18.027,11.942,18.027,12.052,18.011
182846,12.109,18.027,11.942,18.027,12.052,18.011
183338,12.109,18.027,11.942,18.027,12.052,18.011
183877,12.109,18.027,11.942,18.027,12.052,18.011
184419,12.109,18.027,11.942,18.027,12.052,18.011
184939,12.109,18.027,11.942,18.027,12.052,18.011
185460,12.109,18.027,11.942,18.027,12.052,18.011
185959,12.109,18.027,11.942,18.027,12.052,18.011
186495,12.109,18.027,11.942,18.027,12.052,18.011
186988,12.109,18.027,11.942,18.027,12.052,18.011
187528,12.109,18.027,11.942,18.027,12.052,18.011
188020,12.109,18.027,11.942,18.027,12.052,18.011
188547,12.109,18.027,11.942,18.027,12.052,18.011
189048,12.109,18.027,11.942,18.027,12.052,18.011
189575,12.109,18.027,11.942,18.027,12.052,18.011
190072,12.109,18.027,11.942,18.027,12.052,18.011
190599,12.109,18.027,11.942,18.027,12.052,18.011
191138,12.109,18.027,11.942,18.027,12.052,18.011
191660,12.109,18.027,11.942,18.027,12.052,18.011
192188,12.109,18.027,11.942,18.027,12.052,18.011
192687,12.109,18.027,11.942,18.027,12.052,18.011
193223,12.109,18.027,11.942,18.027,12.052,18.011
193724,12.109,18.027,11.942,18.027,12.052,18.011
194280,12.109,18.027,11.942,18.027,12.052,18.011
194814,12.109,18.027,11.942,18.027,12.052,18.011
195326,12.109,18.027,11.942,18.027,12.052,18.011
195855,12.109,18.027,11.942,18.027,12.052,18.011
196359,12.109,18.027,11.942,18.027,12.052,18.011
196884,12.109,18.027,11.942,18.027,12.052,18.011
197388,12.109,18.027,11.942,18.027,12.052,18.011
197904,12.109,18.027,11.942,18.027,12.052,18.011
198396,12.109,18.027,11.942,18.027,12.052,18.011
198926,12.109,18.027,11.942,18.027,12.052,18.011
199433,12.109,18.027,11.942,18.027,12.052,18.011
199963,12.109,18.027,11.942,18.027,12.052,18.011
200449,12.109,18.027,11.942,18.027,12.052,18.011
200974,12.109,18.027,11.942,18.027,12.052,18.011
201471,12.109,18.027,11.942,18.027,12.052,18.011
202000,12.109,18.027,11.942,18.027,12.052,18.011
202502,12.109,18.027,11.942,18.027,12.052,18.011
203023,12.109,18.027,11.942,18.027,12.052,18.011
203529,12.109,18.027,11.942,18.027,12.052,18.011
204053,12.109,18.027,11.942,18.027,12.052,18.011
204573,12.109,18.027,11.942,18.027,12.052,18.011
205112,12.109,18.027,11.942,18.027,12.052,18.011
205603,12.109,18.027,11.942,18.027,12.052,18.011
206113,12.109,18.027,11.942,18.027,12.052,18.011
206615,12.109,18.027,11.942,18.027,12.052,18.011
207141,12.109,18.027,11.942,18.027,12.036,18.011
207639,12.109,18.027,11.942,18.027,12.036,18.011
208158,12.109,18.027,11.942,18.027,12.036,18.011
208663,12.109,18.027,11.942,18.027,12.036,18.011
209190,12.109,18.027,11.942,18.027,12.036,18.011
209698,12.109,18.027,11.942,18.027,12.036,18.011
210211,12.109,18.027,11.942,18.027,12.036,18.011
210716,12.109,18.027,11.942,18.027,12.036,18.011
211228,12.109,18.027,11.942,18.027,12.036,18.011
211756,12.109,18.027,11.942,18.027,12.036,18.011
212255,12.109,18.027,11.942,18.027,12.036,18.011
