18A Test,Whitesnake,Whitesnake,Tupac,Tupac,Fetty Wap,Fetty Wap
Time (ms),Voltage1 (V),Current1 (A),Voltage2 (V),Current2 (A),Voltage3 (V),Current3 (A)
597,13.09,18.027,12.721,18.027,13.031,18.028
1184,13.023,18.027,12.638,18.027,12.948,18.028
1728,12.974,18.027,12.588,18.027,12.882,18.028
2303,12.924,18.027,12.522,18.027,12.815,18.028
2891,12.874,18.027,12.456,18.027,12.749,18.028
3476,12.824,18.027,12.389,18.027,12.699,18.028
4063,12.774,18.027,12.323,18.027,12.633,18.028
4593,12.724,18.027,12.273,18.027,12.583,18.028
5185,12.674,18.027,12.224,18.027,12.517,18.028
5768,12.641,18.027,12.174,18.027,12.467,18.028
6345,12.591,18.027,12.124,18.027,12.417,18.028
6932,12.558,18.027,12.091,18.027,12.367,18.028
7516,12.525,18.027,12.074,18.027,12.334,18.028
8044,12.491,18.027,12.041,18.027,12.284,18.028
8625,12.458,18.027,12.025,18.027,12.251,18.028
9211,12.425,18.027,12.008,18.027,12.235,18.028
9797,12.391,18.027,11.992,18.027,12.201,18.028
10295,12.375,18.027,11.992,18.027,12.185,18.028
10884,12.358,18.027,11.975,18.027,12.168,18.028
11451,12.342,18.027,11.975,18.027,12.152,18.028
12020,12.325,18.027,11.958,18.027,12.135,18.028
12568,12.308,18.027,11.958,18.027,12.119,18.028
13052,12.292,18.027,11.958,18.027,12.102,18.028
13587,12.292,18.027,11.958,18.027,12.102,18.028
14066,12.275,18.027,11.942,18.027,12.085,18.028
14614,12.258,18.027,11.942,18.027,12.069,18.028
15172,12.258,18.027,11.942,18.027,12.069,18.028
15712,12.242,18.027,11.942,18.027,12.069,18.028
16204,12.242,18.027,11.942,18.027,12.069,18.028
16750,12.225,18.027,11.942,18.027,12.069,18.028
17249,12.225,18.027,11.942,18.027,12.069,18.028
17786,12.225,18.027,11.925,18.027,12.069,18.028
18306,12.209,18.027,11.925,18.027,12.085,18.028
18792,12.209,18.027,11.925,18.027,12.085,18.028
19307,12.209,18.027,11.925,18.027,12.102,18.028
19818,12.209,18.027,11.925,18.027,12.102,18.028
20374,12.192,18.027,11.925,18.027,12.102,18.028
20902,12.192,18.027,11.925,18.027,12.119,18.028
21385,12.192,18.027,11.925,18.027,12.119,18.028
21903,12.192,18.027,11.909,18.027,12.119,18.028
22402,12.192,18.027,11.909,18.027,12.135,18.028
22918,12.192,18.027,11.909,18.027,12.135,18.028
23449,12.209,18.027,11.909,18.027,12.135,18.028
23979,12.209,18.027,11.909,18.027,12.152,18.028
24483,12.209,18.027,11.892,18.027,12.152,18.028
25042,12.209,18.027,11.892,18.027,12.152,18.028
25559,12.225,18.027,11.892,18.027,12.152,18.028
26054,12.225,18.027,11.892,18.027,12.152,18.028
26608,12.225,18.027,11.892,18.027,12.168,18.028
27127,12.242,18.027,11.892,18.027,12.168,18.028
27628,12.242,18.027,11.876,18.027,12.168,18.028
28177,12.242,18.027,11.876,18.027,12.168,18.028
28672,12.258,18.027,11.876,18.027,12.168,18.028
29208,12.258,18.027,11.876,18.027,12.185,18.028
29735,12.258,18.027,11.876,18.027,12.185,18.028
30265,12.275,18.027,11.876,18.027,12.185,18.028
30790,12.275,18.027,11.859,18.027,12.185,18.028
31277,12.275,18.027,11.859,18.027,12.185,18.028
31827,12.292,18.027,11.859,18.027,12.185,18.028
32331,12.292,18.027,11.859,18.027,12.185,18.028
32857,12.292,18.027,11.859,18.027,12.185,18.028
33345,12.292,18.027,11.859,18.027,12.201,18.028
33893,12.292,18.027,11.859,18.027,12.201,18.028
34417,12.308,18.027,11.859,18.027,12.201,18.028
34903,12.308,18.027,11.859,18.027,12.201,18.028
35423,12.308,18.027,11.859,18.027,12.201,18.028
35939,12.308,18.027,11.859,18.027,12.201,18.028
36466,12.308,18.027,11.859,18.027,12.201,18.028
36962,12.308,18.027,11.859,18.027,12.201,18.028
37515,12.325,18.027,11.859,18.027,12.201,18.028
38048,12.325,18.027,11.859,18.027,12.201,18.011
38544,12.325,18.027,11.859,18.027,12.201,18.028
39059,12.325,18.027,11.859,18.027,12.201,18.028
39569,12.325,18.027,11.859,18.027,12.201,18.028
40090,12.325,18.027,11.859,18.027,12.218,18.028
40577,12.325,18.027,11.859,18.027,12.218,18.028
41089,12.325,18.027,11.859,18.027,12.218,18.028
41586,12.325,18.027,11.859,18.027,12.218,18.028
42145,12.325,18.027,11.859,18.027,12.218,18.028
42670,12.342,18.027,11.859,18.027,12.218,18.028
43161,12.342,18.027,11.859,18.027,12.218,18.028
43687,12.342,18.027,11.859,18.027,12.218,18.028
44184,12.342,18.027,11.859,18.027,12.218,18.028
44712,12.342,18.027,11.859,18.027,12.218,18.028
45205,12.342,18.027,11.859,18.027,12.218,18.028
45740,12.342,18.027,11.859,18.027,12.218,18.028
46242,12.342,18.027,11.859,18.027,12.218,18.028
46759,12.342,18.027,11.859,18.027,12.218,18.028
47261,12.342,18.027,11.859,18.027,12.218,18.028
47806,12.342,18.027,11.859,18.027,12.218,18.028
48324,12.342,18.027,11.876,18.027,12.218,18.028
48820,12.342,18.027,11.876,18.027,12.218,18.028
49340,12.342,18.027,11.876,18.027,12.218,18.028
49865,12.342,18.027,11.876,18.027,12.218,18.028
50391,12.342,18.027,11.876,18.027,12.218,18.028
50914,12.342,18.027,11.876,18.027,12.218,18.028
51439,12.358,18.027,11.876,18.027,12.218,18.028
51978,12.358,18.027,11.876,18.027,12.218,18.028
52473,12.358,18.027,11.876,18.027,12.218,18.028
53001,12.358,18.027,11.876,18.027,12.218,18.028
53491,12.358,18.027,11.876,18.027,12.235,18.028
54001,12.358,18.027,11.876,18.027,12.235,18.028
54498,12.358,18.027,11.876,18.027,12.235,18.028
55034,12.358,18.027,11.876,18.027,12.235,18.028
55535,12.358,18.027,11.876,18.027,12.235,18.028
56054,12.358,18.027,11.876,18.027,12.235,18.028
56555,12.358,18.027,11.876,18.027,12.235,18.028
57076,12.358,18.027,11.876,18.027,12.235,18.028
57581,12.358,18.027,11.876,18.027,12.235,18.028
58095,12.358,18.027,11.892,18.027,12.235,18.028
58602,12.358,18.027,11.892,18.027,12.235,18.028
59127,12.358,18.027,11.892,18.027,12.235,18.028
59635,12.358,18.027,11.892,18.027,12.235,18.028
60164,12.358,18.027,11.892,18.027,12.235,18.028
60669,12.358,18.027,11.892,18.027,12.235,18.028
61215,12.358,18.027,11.892,18.027,12.235,18.028
61753,12.358,18.027,11.892,18.027,12.235,18.028
62251,12.358,18.027,11.876,18.027,12.235,18.028
62779,12.358,18.027,11.876,18.027,12.235,18.011
63283,12.358,18.027,11.876,18.027,12.235,18.028
63819,12.358,18.027,11.876,18.027,12.235,18.028
64325,12.358,18.027,11.876,18.027,12.235,18.011
64857,12.358,18.027,11.892,18.027,12.235,18.028
65384,12.358,18.027,11.892,18.027,12.235,18.028
65888,12.358,18.027,11.892,18.027,12.235,18.028
66405,12.358,18.027,11.892,18.027,12.235,18.028
66897,12.358,18.027,11.892,18.027,12.235,18.028
67423,12.358,18.027,11.892,18.027,12.235,18.028
67936,12.358,18.027,11.892,18.027,12.235,18.028
68455,12.358,18.027,11.892,18.027,12.235,18.028
68976,12.358,18.027,11.892,18.027,12.235,18.028
69474,12.358,18.027,11.892,18.027,12.235,18.028
69999,12.358,18.027,11.892,18.027,12.235,18.028
70508,12.358,18.027,11.892,18.027,12.235,18.028
71060,12.358,18.027,11.892,18.027,12.235,18.028
71565,12.375,18.027,11.892,18.027,12.235,18.011
72084,12.375,18.027,11.892,18.027,12.235,18.011
72584,12.375,18.027,11.892,18.027,12.235,18.011
73109,12.375,18.027,11.892,18.027,12.235,18.028
73617,12.375,18.027,11.892,18.027,12.235,18.011
74130,12.375,18.027,11.892,18.027,12.235,18.028
74639,12.375,18.027,11.892,18.027,12.235,18.011
75158,12.375,18.027,11.892,18.027,12.235,18.011
75669,12.375,18.027,11.892,18.027,12.235,18.011
76193,12.375,18.027,11.892,18.027,12.235,18.011
76684,12.375,18.027,11.892,18.027,12.235,18.028
77225,12.375,18.027,11.892,18.027,12.235,18.028
77754,12.375,18.027,11.892,18.027,12.235,18.011
78247,12.375,18.027,11.892,18.027,12.235,18.011
78768,12.375,18.027,11.892,18.027,12.235,18.011
79264,12.375,18.027,11.892,18.027,12.235,18.011
79801,12.375,18.027,11.892,18.027,12.235,18.011
80309,12.375,18.027,11.892,18.027,12.235,18.011
80858,12.375,18.027,11.892,18.027,12.235,18.011
81389,12.375,18.027,11.892,18.027,12.235,18.011
81891,12.375,18.027,11.892,18.027,12.235,18.011
82426,12.375,18.027,11.892,18.027,12.235,18.011
82912,12.375,18.027,11.892,18.027,12.235,18.011
83436,12.375,18.027,11.892,18.027,12.235,18.028
83940,12.375,18.027,11.892,18.027,12.235,18.011
84453,12.375,18.027,11.892,18.027,12.235,18.011
84946,12.375,18.027,11.892,18.027,12.235,18.028
85474,12.375,18.027,11.892,18.027,12.235,18.011
85964,12.375,18.027,11.892,18.027,12.235,18.011
86488,12.375,18.027,11.892,18.027,12.235,18.011
86997,12.375,18.027,11.892,18.027,12.235,18.028
87527,12.375,18.027,11.892,18.027,12.235,18.011
88049,12.375,18.027,11.909,18.027,12.235,18.011
88554,12.375,18.027,11.909,18.027,12.235,18.011
89091,12.375,18.027,11.909,18.027,12.235,18.011
89587,12.375,18.027,11.909,18.027,12.235,18.011
90108,12.375,18.027,11.909,18.027,12.235,18.011
90615,12.375,18.027,11.909,18.027,12.235,18.011
91162,12.375,18.027,11.909,18.027,12.235,18.011
91681,12.375,18.027,11.909,18.027,12.235,18.011
92180,12.375,18.027,11.909,18.027,12.235,18.011
92709,12.375,18.027,11.909,18.027,12.235,18.011
93211,12.375,18.027,11.909,18.027,12.235,18.011
93734,12.375,18.027,11.909,18.027,12.235,18.011
94238,12.375,18.027,11.909,18.027,12.235,18.011
94780,12.375,18.027,11.909,18.027,12.235,18.011
95271,12.375,18.027,11.909,18.027,12.235,18.011
95804,12.375,18.027,11.909,18.027,12.235,18.011
96288,12.375,18.027,11.909,18.027,12.235,18.011
96815,12.375,18.027,11.909,18.027,12.235,18.011
97296,12.375,18.027,11.909,18.027,12.235,18.011
97821,12.375,18.027,11.909,18.027,12.235,18.011
98321,12.375,18.027,11.909,18.027,12.235,18.011
98837,12.375,18.027,11.909,18.027,12.235,18.011
99340,12.375,18.027,11.909,18.027,12.235,18.011
99885,12.375,18.027,11.909,18.027,12.235,18.011
100403,12.375,18.027,11.909,18.027,12.235,18.011
100932,12.375,18.027,11.909,18.027,12.235,18.011
101459,12.375,18.027,11.909,18.027,12.235,18.011
101956,12.375,18.027,11.909,18.027,12.235,18.011
102488,12.375,18.027,11.909,18.027,12.235,18.011
102985,12.375,18.027,11.909,18.027,12.235,18.011
103519,12.375,18.027,11.909,18.027,12.235,18.011
104054,12.375,18.027,11.909,18.027,12.235,18.011
104561,12.375,18.027,11.909,18.027,12.235,18.011
105082,12.375,18.027,11.909,18.027,12.235,18.011
105581,12.375,18.027,11.909,18.027,12.235,18.011
106101,12.375,18.027,11.909,18.027,12.235,18.011
106603,12.375,18.027,11.909,18.027,12.235,18.011
107133,12.375,18.027,11.909,18.027,12.235,18.011
107645,12.375,18.027,11.909,18.027,12.235,18.011
108180,12.375,18.027,11.909,18.027,12.235,18.011
108671,12.375,18.027,11.909,18.027,12.235,18.011
109195,12.375,18.027,11.909,18.027,12.235,18.011
109700,12.375,18.027,11.909,18.027,12.235,18.011
110215,12.375,18.027,11.909,18.027,12.235,18.011
110719,12.375,18.027,11.909,18.027,12.235,18.011
111276,12.375,18.027,11.909,18.027,12.235,18.011
111815,12.375,18.027,11.909,18.027,12.235,18.011
112317,12.375,18.027,11.909,18.027,12.235,18.011
112836,12.375,18.027,11.909,18.027,12.235,18.011
113328,12.375,18.027,11.909,18.027,12.235,18.011
113850,12.375,18.027,11.909,18.027,12.235,18.011
114351,12.375,18.027,11.909,18.027,12.235,18.011
114877,12.375,18.027,11.909,18.027,12.235,18.011
115372,12.375,18.027,11.909,18.027,12.235,18.011
115907,12.375,18.027,11.909,18.027,12.235,18.011
116402,12.375,18.027,11.909,18.027,12.235,18.011
116933,12.375,18.027,11.909,18.027,12.235,18.011
117422,12.375,18.027,11.909,18.027,12.235,18.011
117941,12.375,18.027,11.909,18.027,12.235,18.011
118449,12.375,18.027,11.909,18.027,12.235,18.011
118973,12.375,18.027,11.909,18.027,12.235,18.011
119485,12.375,18.027,11.909,18.027,12.235,18.011
120009,12.375,18.027,11.909,18.027,12.235,18.011
120544,12.375,18.027,11.909,18.027,12.235,18.011
121076,12.375,18.027,11.909,18.027,12.235,18.011
121594,12.375,18.027,11.909,18.027,12.235,18.011
122098,12.375,18.027,11.909,18.027,12.235,18.011
122617,12.375,18.027,11.909,18.027,12.235,18.011
123111,12.375,18.027,11.909,18.027,12.235,18.011
123655,12.375,18.027,11.909,18.027,12.235,18.011
124180,12.375,18.027,11.909,18.027,12.235,18.011
124675,12.375,18.027,11.909,18.027,12.235,18.011
125200,12.375,18.027,11.909,18.027,12.235,18.011
125692,12.375,18.027,11.909,18.027,12.235,18.011
126221,12.375,18.027,11.909,18.027,12.235,18.011
126711,12.375,18.027,11.909,18.027,12.235,18.011
127248,12.375,18.027,11.909,18.027,12.235,18.011
127755,12.375,18.027,11.909,18.027,12.235,18.011
128279,12.375,18.027,11.909,18.027,12.235,18.011
128771,12.375,18.027,11.909,18.027,12.235,18.011
129297,12.375,18.027,11.909,18.027,12.235,18.011
129800,12.375,18.027,11.909,18.027,12.235,18.011
130314,12.375,18.027,11.909,18.027,12.235,18.011
130807,12.375,18.027,11.909,18.027,12.235,18.011
131349,12.375,18.027,11.909,18.027,12.235,18.011
131860,12.375,18.027,11.909,18.027,12.235,18.011
132386,12.375,18.027,11.909,18.027,12.235,18.011
132896,12.375,18.027,11.909,18.027,12.235,18.011
133433,12.375,18.027,11.909,18.027,12.235,18.011
133939,12.375,18.027,11.909,18.027,12.235,18.011
134464,12.375,18.027,11.909,18.027,12.235,18.011
134957,12.375,18.027,11.909,18.027,12.235,18.011
135492,12.375,18.027,11.909,18.027,12.235,18.011
135994,12.375,18.027,11.925,18.027,12.235,18.011
136511,12.375,18.027,11.925,18.027,12.235,18.011
137024,12.375,18.027,11.909,18.027,12.235,18.011
137521,12.375,18.027,11.909,18.027,12.235,18.011
138047,12.375,18.027,11.925,18.027,12.235,18.011
138539,12.375,18.027,11.925,18.027,12.235,18.011
139059,12.375,18.027,11.925,18.027,12.235,18.011
139577,12.375,18.027,11.925,18.027,12.235,18.011
140099,12.375,18.027,11.925,18.027,12.235,18.011
140590,12.375,18.027,11.925,18.027,12.218,18.011
141138,12.375,18.027,11.925,18.027,12.218,18.011
141629,12.375,18.027,11.925,18.027,12.218,18.011
142154,12.375,18.027,11.925,18.027,12.218,18.011
142673,12.375,18.027,11.925,18.027,12.218,18.011
143175,12.375,18.027,11.925,18.027,12.218,18.011
143706,12.375,18.027,11.925,18.027,12.218,18.011
144197,12.375,18.027,11.925,18.027,12.218,18.011
144729,12.375,18.027,11.925,18.027,12.218,18.011
145215,12.375,18.027,11.925,18.027,12.218,18.011
145736,12.375,18.027,11.925,18.027,12.218,18.011
146235,12.375,18.027,11.925,18.027,12.218,18.011
146755,12.375,18.027,11.925,18.027,12.218,18.011
147261,12.375,18.027,11.925,18.027,12.218,18.011
147806,12.375,18.027,11.925,18.027,12.218,18.011
148334,12.375,18.027,11.925,18.027,12.218,18.011
148820,12.375,18.027,11.925,18.027,12.218,18.011
149348,12.375,18.027,11.925,18.027,12.218,18.011
149840,12.375,18.027,11.925,18.027,12.218,18.011
150366,12.375,18.027,11.925,18.027,12.218,18.011
150863,12.375,18.027,11.925,18.027,12.218,18.011
151410,12.375,18.027,11.925,18.027,12.218,18.011
151916,12.375,18.027,11.925,18.027,12.218,18.011
152446,12.375,18.027,11.925,18.027,12.218,18.011
152947,12.375,18.027,11.925,18.027,12.218,18.011
153465,12.375,18.027,11.925,18.027,12.218,18.011
153953,12.375,18.027,11.925,18.027,12.218,18.011
154475,12.375,18.027,11.925,18.027,12.218,18.011
154980,12.375,18.027,11.925,18.027,12.218,18.011
155510,12.375,18.027,11.925,18.027,12.218,18.011
156007,12.375,18.027,11.925,18.027,12.218,18.011
156525,12.375,18.027,11.925,18.027,12.218,18.011
157028,12.375,18.027,11.925,18.027,12.218,18.011
157550,12.375,18.027,11.925,18.027,12.218,18.011
158043,12.375,18.027,11.925,18.027,12.218,18.011
158556,12.375,18.027,11.925,18.027,12.218,18.011
159056,12.375,18.027,11.925,18.027,12.218,18.011
159587,12.375,18.027,11.925,18.027,12.218,18.011
160109,12.375,18.027,11.925,18.027,12.218,18.011
160609,12.375,18.027,11.925,18.027,12.218,18.011
161153,12.375,18.027,11.925,18.027,12.218,18.011
161649,12.375,18.027,11.925,18.027,12.218,18.011
162179,12.375,18.027,11.925,18.027,12.218,18.011
162681,12.375,18.027,11.925,18.027,12.218,18.011
163207,12.375,18.027,11.925,18.027,12.218,18.011
163712,12.375,18.027,11.925,18.027,12.218,18.011
164231,12.375,18.027,11.925,18.027,12.218,18.011
164731,12.375,18.027,11.925,18.027,12.218,18.011
165255,12.375,18.027,11.925,18.027,12.218,18.011
165755,12.375,18.027,11.925,18.027,12.218,18.011
166273,12.375,18.027,11.925,18.027,12.218,18.011
166769,12.375,18.027,11.925,18.027,12.218,18.011
167293,12.375,18.027,11.925,18.027,12.218,18.011
167796,12.375,18.027,11.925,18.027,12.218,18.011
168317,12.375,18.027,11.925,18.027,12.218,18.011
168829,12.375,18.027,11.925,18.027,12.218,18.011
169337,12.375,18.027,11.925,18.027,12.218,18.011
169859,12.375,18.027,11.925,18.027,12.218,18.011
170362,12.375,18.027,11.925,18.027,12.218,18.011
170888,12.375,18.027,11.925,18.027,12.218,18.011
171411,12.375,18.027,11.925,18.027,12.218,18.011
171947,12.375,18.027,11.925,18.027,12.218,18.011
172447,12.375,18.027,11.925,18.027,12.218,18.011
172967,12.375,18.027,11.925,18.027,12.218,18.011
173512,12.375,18.027,11.925,18.027,12.218,18.011
174000,12.375,18.027,11.925,18.027,12.218,18.011
174518,12.375,18.027,11.925,18.027,12.218,18.011
175019,12.375,18.027,11.925,18.027,12.218,18.011
175547,12.375,18.027,11.925,18.027,12.218,18.011
176034,12.375,18.027,11.925,18.027,12.218,18.011
176556,12.375,18.027,11.925,18.027,12.218,18.011
177055,12.375,18.027,11.925,18.027,12.218,18.011
177581,12.375,18.027,11.925,18.027,12.218,18.011
178085,12.375,18.027,11.925,18.027,12.201,18.011
178616,12.375,18.027,11.925,18.027,12.201,18.011
179094,12.375,18.027,11.925,18.027,12.201,18.011
179646,12.375,18.027,11.925,18.027,12.201,18.011
180143,12.375,18.027,11.925,18.027,12.201,18.011
180657,12.375,18.027,11.925,18.027,12.201,18.011
181171,12.375,18.027,11.925,18.027,12.201,18.011
181725,12.375,18.027,11.925,18.027,12.201,18.011
182254,12.375,18.027,11.925,18.027,12.201,18.011
182752,12.375,18.027,11.925,18.027,12.201,18.011
183277,12.375,18.027,11.925,18.027,12.201,18.011
183796,12.375,18.027,11.925,18.027,12.201,18.011
184328,12.375,18.027,11.925,18.027,12.201,18.011
184819,12.375,18.027,11.925,18.027,12.201,18.011
185351,12.375,18.027,11.925,18.027,12.201,18.011
185863,12.375,18.027,11.925,18.027,12.201,18.011
186387,12.375,18.027,11.925,18.027,12.201,18.011
186919,12.375,18.027,11.925,18.027,12.201,18.011
187405,12.375,18.027,11.925,18.027,12.201,18.011
187935,12.375,18.027,11.925,18.027,12.201,18.011
188422,12.375,18.027,11.925,18.027,12.201,18.011
188950,12.375,18.027,11.925,18.027,12.201,18.011
189489,12.375,18.027,11.925,18.027,12.201,18.011
189991,12.375,18.027,11.925,18.027,12.201,18.011
190516,12.375,18.027,11.925,18.027,12.201,18.011
191018,12.375,18.027,11.925,18.027,12.201,18.011
191579,12.375,18.027,11.925,18.027,12.201,18.011
192091,12.375,18.027,11.925,18.027,12.201,18.011
192620,12.375,18.027,11.925,18.027,12.201,18.011
193122,12.375,18.027,11.925,18.027,12.201,18.011
193643,12.375,18.027,11.925,18.027,12.201,18.011
194142,12.375,18.027,11.925,18.027,12.201,18.011
194657,12.375,18.027,11.925,18.027,12.201,18.011
195157,12.375,18.027,11.925,18.027,12.201,18.011
195693,12.375,18.027,11.925,18.027,12.201,18.011
196214,12.375,18.027,11.925,18.027,12.201,18.011
196719,12.375,18.027,11.925,18.027,12.201,18.011
197251,12.375,18.027,11.925,18.027,12.201,18.011
197752,12.375,18.027,11.925,18.027,12.201,18.011
198282,12.375,18.027,11.925,18.027,12.201,18.011
198769,12.375,18.027,11.925,18.027,12.201,18.011
199296,12.375,18.027,11.925,18.027,12.201,18.011
199812,12.375,18.027,11.925,18.027,12.201,18.011
200342,12.375,18.027,11.925,18.027,12.201,18.011
200859,12.375,18.027,11.925,18.027,12.201,18.011
201354,12.375,18.027,11.925,18.027,12.201,18.011
201912,12.375,18.027,11.925,18.027,12.201,18.011
202414,12.375,18.027,11.925,18.027,12.201,18.011
202932,12.375,18.027,11.925,18.027,12.201,18.011
203433,12.375,18.027,11.925,18.027,12.201,18.011
203972,12.375,18.027,11.925,18.027,12.201,18.011
204482,12.375,18.027,11.925,18.027,12.201,18.011
205011,12.375,18.027,11.925,18.027,12.201,18.011
205515,12.375,18.027,11.925,18.027,12.201,18.011
206019,12.375,18.027,11.909,18.027,12.201,18.011
206528,12.375,18.027,11.909,18.027,12.201,18.011
207067,12.375,18.027,11.909,18.027,12.201,18.011
207600,12.375,18.027,11.909,18.027,12.201,18.011
208089,12.375,18.027,11.925,18.027,12.185,18.011
208609,12.375,18.027,11.909,18.027,12.185,18.011
209096,12.375,18.027,11.925,18.027,12.185,18.011
209627,12.375,18.027,11.909,18.027,12.185,18.011
210121,12.375,18.027,11.909,18.027,12.185,18.011
210649,12.375,18.027,11.909,18.027,12.185,18.011
211135,12.375,18.027,11.909,18.027,12.185,18.011
211699,12.375,18.027,11.909,18.027,12.185,18.011
212233,12.375,18.027,11.909,18.027,12.185,18.011
