18A Test,Moto Moto,Moto Moto,BLUE-07064-HA-3,BLUE-07064-HA-3,BLUE-07064-HA-4,BLUE-07064-HA-4
Time (ms),Voltage1 (V),Current1 (A),Voltage2 (V),Current2 (A),Voltage3 (V),Current3 (A)
528,12.874,18.027,12.074,18.027,0.01,0.006
1140,12.807,18.027,11.958,18.027,6.728,0.006
1719,12.757,18.027,11.892,18.027,6.827,-0.01
2297,12.707,18.027,11.826,18.027,6.86,-0.01
2836,12.658,18.027,11.793,18.027,6.877,-0.01
3344,12.608,18.027,11.76,18.027,6.894,-0.01
3878,12.574,18.027,11.726,18.027,6.91,-0.01
4360,12.541,18.027,11.71,18.027,6.91,-0.01
4865,12.508,18.027,11.693,18.027,6.91,-0.01
5417,12.475,18.027,11.677,18.027,6.927,-0.01
5927,12.441,18.027,11.677,18.027,6.927,-0.01
6461,12.408,18.027,11.66,18.027,6.927,-0.01
6969,12.391,18.027,11.644,18.027,6.927,-0.01
7486,12.358,18.027,11.644,18.027,6.927,-0.01
8062,12.342,18.027,11.627,18.027,6.927,-0.01
8623,12.325,18.027,11.627,18.027,6.927,0.006
9186,12.308,18.027,11.61,18.027,6.927,-0.01
9749,12.292,18.027,12.389,0.02,6.927,0.006
10248,12.275,18.027,12.439,0.02,6.927,-0.01
10742,12.275,18.027,12.472,0.003,6.927,0.006
11250,12.258,18.027,12.489,0.02,6.927,-0.01
11821,12.258,18.027,12.505,0.003,6.927,-0.01
12297,12.242,18.027,12.522,0.003,6.927,-0.01
12788,12.242,18.027,12.538,0.003,6.927,-0.01
13323,12.225,18.027,12.555,0.003,6.927,-0.01
13820,12.225,18.027,12.555,0.003,6.927,-0.01
14341,12.225,18.027,12.572,0.003,6.927,-0.01
14831,12.209,18.027,12.572,0.003,6.91,-0.01
15355,12.209,18.027,12.588,0.003,6.927,0.006
15909,12.209,18.027,12.588,0.003,6.91,-0.01
16418,12.209,18.027,12.588,0.003,6.91,-0.01
16950,12.209,18.027,12.605,0.003,6.927,-0.01
17478,12.209,18.027,12.605,0.003,6.91,0.006
17976,12.209,18.027,12.605,0.003,6.91,-0.01
18477,12.209,18.027,12.621,0.003,6.91,-0.01
18954,12.209,18.027,12.621,0.003,6.91,-0.01
19450,12.209,18.027,12.621,0.003,6.91,-0.01
19923,12.209,18.027,12.621,0.003,6.91,0.006
20421,12.209,18.027,12.621,0.003,6.91,-0.01
20889,12.209,18.027,12.638,0.003,6.91,0.006
21389,12.209,18.027,12.638,0.003,6.91,-0.01
21854,12.225,18.027,12.638,0.003,6.91,0.006
22349,12.225,18.027,12.638,0.003,6.91,-0.01
22826,12.225,18.027,12.638,0.003,6.91,0.006
23332,12.225,18.027,12.654,0.003,6.91,-0.01
23811,12.225,18.027,12.654,0.003,6.91,-0.01
24340,12.225,18.027,12.654,0.003,6.91,0.006
24907,12.242,18.027,12.654,0.003,6.91,-0.01
25418,12.242,18.027,12.654,0.003,6.91,0.006
25933,12.242,18.027,12.654,0.003,6.894,-0.01
26412,12.242,18.027,12.654,0.003,6.91,-0.01
26889,12.242,18.027,12.671,0.003,6.894,-0.01
27392,12.242,18.027,12.671,0.003,6.894,-0.01
27938,12.242,18.027,12.671,0.003,6.91,0.006
28441,12.258,18.027,12.671,0.003,6.894,-0.01
28942,12.258,18.027,12.671,0.003,6.894,-0.01
29476,12.258,18.027,12.671,0.003,6.894,-0.01
29952,12.258,18.027,12.671,0.003,6.894,-0.01
30439,12.258,18.027,12.671,0.003,6.894,-0.01
30924,12.258,18.027,12.671,0.003,6.894,-0.01
31422,12.258,18.027,12.688,0.003,6.894,0.006
31904,12.258,18.027,12.688,0.003,6.894,-0.01
32402,12.275,18.027,12.688,0.003,6.894,-0.01
32904,12.275,18.027,12.688,0.003,6.894,-0.01
33444,12.275,18.027,12.688,0.003,6.894,0.006
33904,12.275,18.027,12.688,0.003,6.894,-0.01
34424,12.275,18.027,12.688,0.003,6.877,-0.01
34926,12.275,18.027,12.688,0.003,6.877,0.006
35386,12.275,18.027,12.688,0.003,6.877,0.006
35875,12.275,18.027,12.688,0.003,6.877,-0.01
36346,12.275,18.027,12.688,0.003,6.877,-0.01
36836,12.275,18.027,12.688,0.003,6.877,0.006
37320,12.292,18.027,12.704,0.003,6.877,-0.01
37819,12.292,18.027,12.704,0.003,6.877,-0.01
38291,12.292,18.027,12.704,0.003,6.877,-0.01
38852,12.292,18.027,12.704,0.003,6.877,-0.01
39356,12.292,18.027,12.704,0.003,6.877,-0.01
39898,12.292,18.027,12.704,0.003,6.877,-0.01
40404,12.292,18.027,12.704,0.003,6.877,-0.01
40943,12.292,18.027,12.704,0.003,6.877,0.006
41451,12.292,18.027,12.704,0.003,6.877,-0.01
41935,12.292,18.027,12.704,0.003,6.86,0.006
42459,12.292,18.027,12.704,0.003,6.86,-0.01
42922,12.292,18.027,12.704,0.003,6.86,0.006
43457,12.292,18.027,12.704,0.003,6.86,-0.01
43990,12.292,18.027,12.704,0.003,6.86,-0.01
44455,12.292,18.027,12.704,0.003,6.86,-0.01
44961,12.292,18.027,12.721,0.003,6.86,-0.01
45436,12.292,18.027,12.721,0.003,6.86,-0.01
45921,12.308,18.027,12.721,0.003,6.86,-0.01
46398,12.308,18.027,12.721,0.003,6.86,-0.01
46889,12.308,18.027,12.721,0.003,6.86,-0.01
47373,12.308,18.027,12.721,0.003,6.86,0.006
47929,12.308,18.027,12.721,0.003,6.844,0.006
48416,12.308,18.027,12.721,0.003,6.86,0.006
48889,12.308,18.027,12.721,0.003,6.86,-0.01
49431,12.308,18.027,12.721,0.003,6.86,-0.01
49930,12.308,18.027,12.721,0.003,6.844,-0.01
50463,12.308,18.027,12.721,0.003,6.844,-0.01
51017,12.308,18.027,12.721,0.003,6.86,-0.01
51491,12.308,18.027,12.721,0.003,6.844,-0.01
52034,12.308,18.027,12.721,0.003,6.86,-0.01
52585,12.308,18.027,12.721,0.003,6.86,0.006
53061,12.308,18.027,12.721,0.003,6.844,-0.01
53570,12.308,18.027,12.721,0.003,6.844,-0.01
54043,12.308,18.027,12.721,0.003,6.844,-0.01
54553,12.308,18.027,12.721,0.003,6.844,-0.01
55021,12.308,18.027,12.721,0.003,6.844,0.006
55525,12.308,18.027,12.721,0.003,6.844,-0.01
55998,12.308,18.027,12.721,0.003,6.844,0.006
56483,12.308,18.027,12.721,0.003,6.844,0.006
56981,12.308,18.027,12.721,0.003,6.844,-0.01
57516,12.308,18.027,12.721,0.003,6.844,0.006
58016,12.308,18.027,12.721,0.003,6.844,-0.01
58480,12.308,18.027,12.721,0.003,6.844,0.006
59028,12.308,18.027,12.737,0.003,6.844,-0.01
59507,12.308,18.027,12.737,0.003,6.844,-0.01
60055,12.308,18.027,12.737,0.003,6.844,-0.01
60573,12.308,18.027,12.737,0.003,6.844,-0.01
61074,12.308,18.027,12.737,0.003,6.844,-0.01
61634,12.308,18.027,12.737,0.003,6.844,0.006
62186,12.308,18.027,12.737,0.003,6.844,0.006
62689,12.325,18.027,12.737,0.003,6.844,-0.01
63201,12.325,18.027,12.737,0.003,6.844,-0.01
63705,12.325,18.027,12.737,0.003,6.844,-0.01
64231,12.325,18.027,12.737,0.003,6.844,-0.01
64723,12.325,18.027,12.737,0.003,6.844,-0.01
65192,12.325,18.027,12.737,0.003,6.844,-0.01
65726,12.325,18.027,12.737,0.003,6.844,-0.01
66210,12.325,18.027,12.737,0.003,6.844,-0.01
66741,12.325,18.027,12.737,0.003,6.844,-0.01
67301,12.325,18.027,12.737,0.003,6.844,-0.01
67804,12.325,18.027,12.737,0.003,6.844,-0.01
68353,12.325,18.027,12.737,0.003,6.827,-0.01
68869,12.325,18.027,12.737,0.003,6.844,-0.01
69348,12.325,18.027,12.737,0.003,6.844,-0.01
69839,12.325,18.027,12.737,0.003,6.844,-0.01
70317,12.325,18.027,12.737,0.003,6.844,-0.01
70835,12.325,18.027,12.737,0.003,6.827,0.006
71336,12.325,18.027,12.737,0.003,6.844,-0.01
71893,12.325,18.027,12.737,0.003,6.827,-0.01
72389,12.325,18.027,12.737,0.003,6.827,-0.01
72889,12.325,18.027,12.737,0.003,6.827,0.006
73422,12.325,18.027,12.737,0.003,6.844,-0.01
73920,12.325,18.027,12.737,0.003,6.844,0.006
74442,12.325,18.027,12.737,0.003,6.844,0.006
74910,12.325,18.027,12.737,0.003,6.827,0.006
75408,12.325,18.027,12.737,0.003,6.827,-0.01
75902,12.325,18.027,12.737,0.003,6.827,-0.01
76393,12.325,18.027,12.737,0.003,6.827,-0.01
76892,12.325,18.027,12.737,0.003,6.827,-0.01
77387,12.325,18.027,12.737,0.003,6.827,-0.01
77886,12.325,18.027,12.737,0.003,6.827,0.006
78352,12.325,18.027,12.737,0.003,6.827,-0.01
78854,12.325,18.027,12.737,0.003,6.827,-0.01
79326,12.325,18.027,12.737,0.003,6.827,-0.01
79822,12.325,18.027,12.737,0.003,6.827,0.006
80332,12.325,18.027,12.737,0.003,6.827,-0.01
80860,12.325,18.027,12.754,0.003,6.827,-0.01
81345,12.325,18.027,12.754,0.003,6.827,-0.01
81846,12.325,18.027,12.754,0.003,6.827,-0.01
82327,12.325,18.027,12.754,0.003,6.827,0.006
82822,12.325,18.027,12.754,0.003,6.827,-0.01
83292,12.325,18.027,12.754,0.003,6.827,-0.01
83850,12.325,18.027,12.754,0.003,6.827,-0.01
84338,12.325,18.027,12.754,0.003,6.827,0.006
84829,12.325,18.027,12.754,0.003,6.827,-0.01
85400,12.325,18.027,12.754,0.003,6.827,-0.01
85934,12.325,18.027,12.754,0.003,6.827,0.006
86406,12.325,18.027,12.754,0.003,6.827,-0.01
86926,12.325,18.027,12.754,0.003,6.827,-0.01
87410,12.325,18.027,12.754,0.003,6.827,-0.01
87941,12.325,18.027,12.754,0.003,6.827,-0.01
88463,12.325,18.027,12.754,0.003,6.811,0.006
88936,12.325,18.027,12.754,0.003,6.827,-0.01
89453,12.325,18.027,12.754,0.003,6.811,-0.01
89920,12.325,18.027,12.754,0.003,6.811,0.006
90417,12.325,18.027,12.754,0.003,6.811,-0.01
90892,12.325,18.027,12.754,0.003,6.811,-0.01
91431,12.325,18.027,12.754,0.003,6.811,-0.01
91986,12.325,18.027,12.754,0.003,6.811,-0.01
92483,12.325,18.027,12.754,0.003,6.811,0.006
93003,12.325,18.027,12.754,0.003,6.827,0.006
93518,12.325,18.027,12.754,0.003,6.827,-0.01
94021,12.325,18.027,12.754,0.003,6.827,-0.01
94509,12.325,18.027,12.754,0.003,6.827,0.006
94978,12.325,18.027,12.754,0.003,6.827,-0.01
95514,12.325,18.027,12.754,0.003,6.827,-0.01
96017,12.325,18.027,12.754,0.003,6.827,-0.01
96529,12.325,18.027,12.754,0.003,6.827,-0.01
97005,12.325,18.027,12.754,0.003,6.827,0.006
97550,12.325,18.027,12.754,0.003,6.811,-0.01
98076,12.325,18.027,12.754,0.003,6.811,-0.01
98580,12.325,18.027,12.754,0.003,6.811,-0.01
99082,12.325,18.027,12.754,0.003,6.811,-0.01
99560,12.325,18.027,12.754,0.003,6.811,0.006
100063,12.325,18.027,12.754,0.003,6.811,0.006
100562,12.325,18.027,12.754,0.003,6.811,-0.01
101092,12.325,18.027,12.754,0.003,6.811,-0.01
101598,12.325,18.027,12.754,0.003,6.811,0.006
102066,12.325,18.027,12.754,0.003,6.811,0.006
102561,12.325,18.027,12.754,0.003,6.811,-0.01
103040,12.325,18.027,12.754,0.003,6.811,-0.01
103528,12.325,18.027,12.754,0.003,6.811,-0.01
104037,12.325,18.027,12.754,0.003,6.811,-0.01
104570,12.325,18.027,12.754,0.003,6.811,0.006
105031,12.325,18.027,12.754,0.003,6.811,0.006
105543,12.325,18.027,12.754,0.003,6.811,-0.01
106034,12.325,18.027,12.754,0.003,6.811,-0.01
106558,12.325,18.027,12.754,0.003,6.811,0.006
107091,12.325,18.027,12.754,0.003,6.811,-0.01
107594,12.325,18.027,12.754,0.003,6.811,0.006
108093,12.325,18.027,12.754,0.003,6.811,-0.01
108572,12.325,18.027,12.754,0.003,6.811,-0.01
109066,12.325,18.027,12.754,0.003,6.811,-0.01
109539,12.325,18.027,12.754,0.003,6.811,-0.01
110091,12.325,18.027,12.754,0.003,6.811,-0.01
110590,12.325,18.027,12.754,0.003,6.811,-0.01
111058,12.325,18.027,12.754,0.003,6.811,-0.01
111548,12.325,18.027,12.754,0.003,6.811,-0.01
112055,12.325,18.027,12.754,0.003,6.811,-0.01
112602,12.325,18.027,12.754,0.003,6.811,-0.01
113130,12.325,18.027,12.754,0.003,6.811,-0.01
113632,12.325,18.027,12.754,0.003,6.811,-0.01
114162,12.325,18.027,12.754,0.003,6.794,-0.01
114693,12.325,18.027,12.754,0.003,6.811,-0.01
115167,12.325,18.027,12.754,0.003,6.811,-0.01
115662,12.325,18.027,12.754,0.003,6.811,-0.01
116139,12.325,18.027,12.754,0.003,6.811,-0.01
116666,12.325,18.027,12.754,0.003,6.811,-0.01
117139,12.325,18.027,12.754,0.003,6.794,-0.01
117635,12.325,18.027,12.754,0.003,6.794,0.006
118135,12.325,18.027,12.754,0.003,6.811,-0.01
118695,12.325,18.027,12.754,0.003,6.811,-0.01
119200,12.325,18.027,12.754,0.003,6.811,-0.01
119704,12.325,18.027,12.754,0.003,6.794,-0.01
120203,12.325,18.027,12.754,0.003,6.794,-0.01
120694,12.325,18.027,12.754,0.003,6.794,-0.01
121240,12.325,18.027,12.754,0.003,6.794,-0.01
121734,12.325,18.027,12.754,0.003,6.794,-0.01
122228,12.325,18.027,12.754,0.003,6.794,-0.01
122699,12.325,18.027,12.754,0.003,6.794,-0.01
123207,12.325,18.027,12.754,0.003,6.794,-0.01
123709,12.325,18.027,12.754,0.003,6.794,0.006
124213,12.325,18.027,12.754,0.003,6.794,-0.01
124738,12.325,18.027,12.754,0.003,6.794,0.006
125224,12.325,18.027,12.754,0.003,6.794,-0.01
125757,12.325,18.027,12.754,0.003,6.794,-0.01
126289,12.325,18.027,12.77,0.003,6.794,-0.01
126802,12.325,18.027,12.77,0.003,6.794,0.006
127355,12.325,18.027,12.77,0.003,6.794,-0.01
127893,12.325,18.027,12.77,0.003,6.794,-0.01
128372,12.325,18.027,12.77,0.003,6.794,-0.01
128872,12.325,18.027,12.77,0.003,6.794,-0.01
129362,12.325,18.027,12.77,0.003,6.794,-0.01
129852,12.325,18.027,12.77,0.003,6.794,-0.01
130329,12.325,18.027,12.77,0.003,6.794,-0.01
130831,12.325,18.027,12.77,0.003,6.794,0.006
131339,12.325,18.027,12.77,0.003,6.794,-0.01
131869,12.325,18.027,12.77,0.003,6.794,-0.01
132373,12.325,18.027,12.77,0.003,6.794,-0.01
132887,12.325,18.027,12.77,0.003,6.794,-0.01
133375,12.325,18.027,12.77,0.003,6.794,-0.01
133870,12.325,18.027,12.77,0.003,6.794,-0.01
134337,12.325,18.027,12.77,0.003,6.794,0.006
134849,12.325,18.027,12.77,0.003,6.794,0.006
135346,12.325,18.027,12.77,0.003,6.794,0.006
135841,12.325,18.027,12.77,0.003,6.794,-0.01
136336,12.325,18.027,12.77,0.003,6.777,-0.01
136875,12.325,18.027,12.77,0.003,6.777,-0.01
137365,12.325,18.027,12.77,0.003,6.777,-0.01
137892,12.325,18.027,12.77,0.003,6.777,-0.01
138388,12.325,18.027,12.77,0.003,6.777,-0.01
138859,12.325,18.027,12.77,0.003,6.777,-0.01
139392,12.325,18.027,12.77,0.003,6.777,-0.01
139864,12.325,18.027,12.77,0.003,6.777,-0.01
140388,12.325,18.027,12.77,0.003,6.777,-0.01
140863,12.325,18.027,12.77,0.003,6.777,-0.01
141433,12.325,18.027,12.77,0.003,6.777,-0.01
141929,12.325,18.027,12.77,0.003,6.777,-0.01
142400,12.325,18.027,12.77,0.003,6.777,-0.01
142884,12.325,18.027,12.77,0.003,6.777,-0.01
143388,12.325,18.027,12.77,0.003,6.777,0.006
143909,12.325,18.027,12.77,0.003,6.777,0.006
144377,12.325,18.027,12.77,0.003,6.777,0.006
144874,12.325,18.027,12.77,0.003,6.777,-0.01
145350,12.325,18.027,12.77,0.003,6.777,-0.01
145844,12.325,18.027,12.77,0.003,6.777,-0.01
146306,12.325,18.027,12.77,0.003,6.777,0.006
146858,12.325,18.027,12.77,0.003,6.777,0.006
147367,12.325,18.027,12.77,0.003,6.777,-0.01
147871,12.325,18.027,12.77,0.003,6.777,-0.01
148396,12.325,18.027,12.77,0.003,6.777,-0.01
148860,12.325,18.027,12.77,0.003,6.777,0.006
149361,12.325,18.027,12.77,0.003,6.777,-0.01
149872,12.325,18.027,12.77,0.003,6.777,-0.01
150399,12.325,18.027,12.77,0.003,6.777,-0.01
150895,12.325,18.027,12.77,0.003,6.777,-0.01
151360,12.325,18.027,12.77,0.003,6.777,-0.01
151869,12.325,18.027,12.77,0.003,6.777,0.006
152346,12.325,18.027,12.77,0.003,6.777,-0.01
152841,12.325,18.027,12.77,0.003,6.777,0.006
153317,12.325,18.027,12.77,0.003,6.777,-0.01
153818,12.325,18.027,12.77,0.003,6.777,-0.01
154290,12.325,18.027,12.77,0.003,6.777,-0.01
154785,12.325,18.027,12.77,0.003,6.777,-0.01
155260,12.325,18.027,12.77,0.003,6.777,-0.01
155748,12.325,18.027,12.77,0.003,6.777,0.006
156226,12.325,18.027,12.77,0.003,6.777,-0.01
156722,12.325,18.027,12.77,0.003,6.777,-0.01
157200,12.325,18.027,12.77,0.003,6.777,-0.01
157694,12.325,18.027,12.77,0.003,6.777,0.006
158151,12.325,18.027,12.77,0.003,6.777,-0.01
158653,12.325,18.027,12.77,0.003,6.777,-0.01
159119,12.325,18.027,12.77,0.003,6.777,-0.01
159647,12.325,18.027,12.77,0.003,6.777,-0.01
160151,12.325,18.027,12.77,0.003,6.777,-0.01
160648,12.325,18.027,12.77,0.003,6.777,-0.01
161154,12.325,18.027,12.77,0.003,6.777,-0.01
161692,12.325,18.027,12.77,0.003,6.777,-0.01
162247,12.325,18.027,12.77,0.003,6.777,0.006
162720,12.325,18.027,12.77,0.003,6.777,-0.01
163218,12.325,18.027,12.77,0.003,6.777,-0.01
163688,12.325,18.027,12.77,0.003,6.777,0.006
164166,12.325,18.027,12.77,0.003,6.777,0.006
164683,12.325,18.027,12.77,0.003,6.777,-0.01
165246,12.325,18.027,12.77,0.003,6.777,-0.01
165733,12.325,18.027,12.77,0.003,6.777,0.006
166239,12.325,18.027,12.77,0.003,6.777,-0.01
166764,12.325,18.027,12.77,0.003,6.777,-0.01
167287,12.325,18.027,12.77,0.003,6.777,0.006
167762,12.325,18.027,12.77,0.003,6.777,-0.01
168261,12.325,18.027,12.77,0.003,6.777,-0.01
168741,12.325,18.027,12.77,0.003,6.777,-0.01
169284,12.325,18.027,12.77,0.003,6.777,-0.01
169784,12.325,18.027,12.77,0.003,6.761,-0.01
170273,12.325,18.027,12.77,0.003,6.777,0.006
170752,12.325,18.027,12.77,0.003,6.777,-0.01
171283,12.325,18.027,12.77,0.003,6.777,-0.01
171750,12.325,18.027,12.77,0.003,6.777,-0.01
172242,12.325,18.027,12.77,0.003,6.761,-0.01
172716,12.325,18.027,12.77,0.003,6.761,-0.01
173217,12.325,18.027,12.77,0.003,6.777,-0.01
173754,12.325,18.027,12.77,0.003,6.761,-0.01
174246,12.325,18.027,12.77,0.003,6.761,-0.01
174807,12.325,18.027,12.77,0.003,6.761,-0.01
175295,12.325,18.027,12.77,0.003,6.761,0.006
175749,12.325,18.027,12.77,0.003,6.761,0.006
176249,12.325,18.027,12.77,0.003,6.761,-0.01
176750,12.325,18.027,12.77,0.003,6.761,-0.01
177285,12.325,18.027,12.77,0.003,6.777,-0.01
177758,12.325,18.027,12.77,0.003,6.761,-0.01
178253,12.325,18.027,12.77,0.003,6.761,-0.01
178755,12.325,18.027,12.77,0.003,6.761,0.006
179229,12.325,18.027,12.77,0.003,6.761,-0.01
179776,12.325,18.027,12.77,0.003,6.761,-0.01
180252,12.325,18.027,12.77,0.003,6.761,-0.01
180755,12.325,18.027,12.77,0.003,6.761,-0.01
181226,12.325,18.027,12.77,0.003,6.761,0.006
181730,12.325,18.027,12.77,0.003,6.761,0.006
182238,12.325,18.027,12.77,0.003,6.761,-0.01
182760,12.325,18.027,12.77,0.003,6.761,-0.01
183316,12.325,18.027,12.77,0.003,6.777,-0.01
183797,12.325,18.027,12.77,0.003,6.761,-0.01
184330,12.325,18.027,12.77,0.003,6.777,-0.01
184803,12.325,18.027,12.77,0.003,6.761,-0.01
185319,12.325,18.027,12.77,0.003,6.761,-0.01
185843,12.325,18.027,12.77,0.003,6.761,-0.01
186340,12.325,18.027,12.77,0.003,6.761,0.006
186892,12.325,18.027,12.77,0.003,6.761,-0.01
187368,12.325,18.027,12.77,0.003,6.761,-0.01
187872,12.325,18.027,12.77,0.003,6.761,-0.01
188344,12.325,18.027,12.77,0.003,6.761,-0.01
188848,12.325,18.027,12.77,0.003,6.761,-0.01
189328,12.325,18.027,12.77,0.003,6.761,-0.01
189825,12.325,18.027,12.77,0.003,6.761,-0.01
190334,12.325,18.027,12.77,0.003,6.761,-0.01
190854,12.325,18.027,12.77,0.003,6.761,0.006
191371,12.325,18.027,12.77,0.003,6.761,-0.01
191891,12.325,18.027,12.77,0.003,6.761,-0.01
192385,12.325,18.027,12.77,0.003,6.761,-0.01
192858,12.325,18.027,12.77,0.003,6.761,-0.01
193362,12.325,18.027,12.77,0.003,6.761,0.006
193825,12.325,18.027,12.77,0.003,6.761,-0.01
194323,12.325,18.027,12.77,0.003,6.761,-0.01
194798,12.325,18.027,12.77,0.003,6.761,-0.01
195296,12.325,18.027,12.77,0.003,6.761,-0.01
195799,12.325,18.027,12.77,0.003,6.761,-0.01
196319,12.325,18.027,12.77,0.003,6.761,0.006
196794,12.325,18.027,12.77,0.003,6.761,-0.01
197330,12.325,18.027,12.77,0.003,6.761,-0.01
197849,12.325,18.027,12.77,0.003,6.761,-0.01
198322,12.325,18.027,12.77,0.003,6.761,-0.01
198817,12.325,18.027,12.77,0.003,6.761,-0.01
199292,12.325,18.027,12.77,0.003,6.761,-0.01
199815,12.325,18.027,12.77,0.003,6.761,-0.01
200313,12.325,18.027,12.77,0.003,6.761,-0.01
200863,12.325,18.027,12.77,0.003,6.761,-0.01
201419,12.325,18.027,12.77,0.003,6.761,-0.01
201921,12.325,18.027,12.77,0.003,6.761,-0.01
202384,12.325,18.027,12.77,0.003,6.761,-0.01
202914,12.325,18.027,12.77,0.003,6.761,-0.01
203406,12.325,18.027,12.77,0.003,6.744,-0.01
203961,12.325,18.027,12.77,0.003,6.761,0.006
204451,12.325,18.027,12.77,0.003,6.744,-0.01
204955,12.325,18.027,12.77,0.003,6.744,-0.01
205476,12.325,18.027,12.77,0.003,6.744,-0.01
205979,12.325,18.027,12.77,0.003,6.761,-0.01
206528,12.325,18.027,12.77,0.003,6.761,-0.01
207039,12.325,18.027,12.77,0.003,6.744,0.006
207506,12.325,18.027,12.77,0.003,6.761,-0.01
208012,12.325,18.027,12.77,0.003,6.761,-0.01
208491,12.325,18.027,12.77,0.003,6.761,-0.01
208986,12.325,18.027,12.77,0.003,6.761,-0.01
209468,12.325,18.027,12.77,0.003,6.744,-0.01
209958,12.325,18.027,12.77,0.003,6.761,0.006
210427,12.325,18.027,12.77,0.003,6.761,-0.01
210994,12.325,18.027,12.77,0.003,6.761,-0.01
211511,12.325,18.027,12.77,0.003,6.744,0.006
211972,12.325,18.027,12.77,0.003,6.744,-0.01
212494,12.325,18.027,12.77,0.003,6.761,-0.01
213022,12.325,18.027,12.77,0.003,6.744,-0.01
213516,12.325,18.027,12.77,0.003,6.744,0.006
214046,12.325,18.027,12.77,0.003,6.744,-0.01
214572,12.325,18.027,12.77,0.003,6.744,-0.01
215046,12.308,18.027,12.77,0.003,6.744,-0.01
215606,12.325,18.027,12.77,0.003,6.761,0.006
216070,12.325,18.027,12.77,0.003,6.744,-0.01
216628,12.308,18.027,12.77,0.003,6.761,0.006
217121,12.308,18.027,12.77,0.003,6.744,-0.01
217610,12.308,18.027,12.77,0.003,6.744,-0.01
218105,12.308,18.027,12.77,0.003,6.744,-0.01
218604,12.308,18.027,12.77,0.003,6.744,0.006
219150,12.308,18.027,12.77,0.003,6.761,0.006
219656,12.308,18.027,12.77,0.003,6.761,-0.01
220156,12.308,18.027,12.77,0.003,6.744,-0.01
220631,12.308,18.027,12.77,0.003,6.744,-0.01
221126,12.308,18.027,12.77,0.003,6.744,-0.01
221604,12.308,18.027,12.77,0.003,6.744,0.006
222100,12.308,18.027,12.787,0.003,6.744,-0.01
