18A Test,Kowalski,Kowalski,Fresh Prince,Fresh Prince,Snoop Dogg,Snoop Dogg
Time (ms),Voltage1 (V),Current1 (A),Voltage2 (V),Current2 (A),Voltage3 (V),Current3 (A)
601,12.89,18.027,12.406,18.027,12.682,18.028
1202,12.824,18.027,12.323,18.027,12.6,18.028
1784,12.757,18.027,12.257,18.027,12.533,18.028
2314,12.707,18.027,12.207,18.027,12.467,18.028
2904,12.641,18.027,12.141,18.027,12.401,18.028
3490,12.591,18.027,12.091,18.027,12.334,18.028
4084,12.541,18.027,12.041,18.027,12.284,18.028
4675,12.491,18.027,12.008,18.027,12.218,18.028
5212,12.441,18.027,11.958,18.027,12.168,18.028
5800,12.391,18.027,11.942,18.027,12.135,18.028
6368,12.342,18.027,11.909,18.027,12.085,18.028
6965,12.308,18.027,11.892,18.027,12.069,18.028
7546,12.275,18.027,11.859,18.027,12.036,18.028
8077,12.242,18.027,11.859,18.027,12.019,18.028
8656,12.209,18.027,11.842,18.027,11.986,18.028
9223,12.192,18.027,11.826,18.027,11.969,18.028
9778,12.159,18.027,11.809,18.027,11.953,18.028
10315,12.142,18.027,11.809,18.027,11.953,18.028
10881,12.125,18.027,11.809,18.027,11.936,18.028
11423,12.109,18.027,11.793,18.027,11.936,18.028
11962,12.109,18.027,11.793,18.027,11.919,18.028
12469,12.092,18.027,11.793,18.027,11.919,18.028
13045,12.076,18.027,11.793,18.027,11.903,18.028
13597,12.076,18.027,11.793,18.027,11.903,18.028
14093,12.059,18.027,11.793,18.027,11.903,18.028
14648,12.059,18.027,11.793,18.027,11.903,18.028
15173,12.042,18.027,11.793,18.027,11.903,18.028
15669,12.042,18.027,11.793,18.027,11.903,18.028
16192,12.042,18.027,11.793,18.027,11.919,18.028
16714,12.042,18.027,11.793,18.027,11.919,18.028
17250,12.026,18.027,11.793,18.027,11.919,18.028
17751,12.026,18.027,11.793,18.027,11.919,18.028
18270,12.026,18.027,11.809,18.027,11.919,18.028
18773,12.026,18.027,11.809,18.027,11.936,18.028
19293,12.026,18.027,11.809,18.027,11.936,18.028
19780,12.026,18.027,11.809,18.027,11.936,18.028
20324,12.042,18.027,11.809,18.027,11.936,18.028
20843,12.042,18.027,11.809,18.027,11.953,18.028
21341,12.042,18.027,11.826,18.027,11.953,18.028
21892,12.042,18.027,11.826,18.027,11.953,18.028
22387,12.059,18.027,11.826,18.027,11.953,18.028
22906,12.059,18.027,11.826,18.027,11.953,18.028
23410,12.059,18.027,11.826,18.027,11.953,18.028
23967,12.059,18.027,11.826,18.027,11.953,18.028
24460,12.076,18.027,11.826,18.027,11.969,18.028
24992,12.076,18.027,11.826,18.027,11.969,18.028
25553,12.076,18.027,11.826,18.027,11.969,18.028
26047,12.092,18.027,11.842,18.027,11.969,18.028
26558,12.092,18.027,11.842,18.027,11.969,18.028
27049,12.092,18.027,11.842,18.027,11.969,18.028
27592,12.092,18.027,11.842,18.027,11.969,18.028
28089,12.109,18.027,11.842,18.027,11.969,18.028
28613,12.109,18.027,11.842,18.027,11.969,18.028
29143,12.109,18.027,11.842,18.027,11.986,18.028
29636,12.109,18.027,11.842,18.027,11.986,18.028
30189,12.109,18.027,11.842,18.027,11.986,18.028
30692,12.125,18.027,11.842,18.027,11.986,18.028
31220,12.125,18.027,11.842,18.027,11.986,18.028
31720,12.125,18.027,11.842,18.027,11.986,18.028
32244,12.125,18.027,11.859,18.027,11.986,18.028
32747,12.125,18.027,11.859,18.027,11.986,18.028
33268,12.125,18.027,11.859,18.027,11.986,18.028
33773,12.125,18.027,11.859,18.027,11.986,18.028
34325,12.125,18.027,11.859,18.027,11.986,18.028
34848,12.142,18.027,11.859,18.027,11.986,18.028
35340,12.142,18.027,11.859,18.027,11.986,18.028
35866,12.142,18.027,11.859,18.027,11.986,18.028
36353,12.142,18.027,11.859,18.027,11.986,18.028
36871,12.142,18.027,11.859,18.027,11.986,18.028
37374,12.142,18.027,11.859,18.027,11.986,18.028
37906,12.142,18.027,11.859,18.027,12.002,18.028
38404,12.142,18.027,11.859,18.027,12.002,18.028
38929,12.142,18.027,11.859,18.027,12.002,18.028
39419,12.142,18.027,11.859,18.027,12.002,18.028
39951,12.142,18.027,11.859,18.027,12.002,18.028
40478,12.142,18.027,11.859,18.027,12.002,18.028
41014,12.159,18.027,11.859,18.027,12.002,18.028
41548,12.159,18.027,11.859,18.027,12.002,18.028
42039,12.159,18.027,11.859,18.027,12.002,18.028
42553,12.159,18.027,11.859,18.027,12.002,18.028
43049,12.159,18.027,11.859,18.027,12.002,18.028
43572,12.159,18.027,11.859,18.027,12.002,18.028
44064,12.159,18.027,11.876,18.027,12.002,18.028
44592,12.159,18.027,11.876,18.027,12.002,18.028
45095,12.159,18.027,11.876,18.027,12.002,18.028
45620,12.159,18.027,11.876,18.027,12.002,18.028
46120,12.159,18.027,11.876,18.027,12.002,18.028
46652,12.159,18.027,11.876,18.027,12.002,18.028
47143,12.159,18.027,11.876,18.027,12.002,18.028
47672,12.159,18.027,11.876,18.027,12.002,18.028
48162,12.159,18.027,11.876,18.027,12.002,18.028
48691,12.159,18.027,11.876,18.027,12.002,18.028
49202,12.159,18.027,11.876,18.027,12.002,18.028
49727,12.159,18.027,11.876,18.027,12.002,18.028
50227,12.159,18.027,11.876,18.027,12.019,18.028
50794,12.159,18.027,11.876,18.027,12.019,18.028
51316,12.159,18.027,11.876,18.027,12.019,18.028
51822,12.159,18.027,11.876,18.027,12.019,18.028
52346,12.159,18.027,11.876,18.027,12.019,18.028
52855,12.159,18.027,11.876,18.027,12.019,18.028
53415,12.159,18.027,11.876,18.027,12.019,18.028
53916,12.175,18.027,11.876,18.027,12.019,18.028
54432,12.175,18.027,11.876,18.027,12.019,18.028
54924,12.175,18.027,11.876,18.027,12.019,18.028
55448,12.175,18.027,11.876,18.027,12.019,18.028
55951,12.175,18.027,11.876,18.027,12.019,18.028
56486,12.175,18.027,11.876,18.027,12.019,18.028
57030,12.175,18.027,11.876,18.027,12.019,18.028
57514,12.175,18.027,11.876,18.027,12.019,18.028
58035,12.175,18.027,11.876,18.027,12.019,18.028
58512,12.175,18.027,11.876,18.027,12.019,18.028
59027,12.175,18.027,11.876,18.027,12.019,18.028
59518,12.175,18.027,11.876,18.027,12.019,18.028
60045,12.175,18.027,11.892,18.027,12.019,18.028
60543,12.175,18.027,11.892,18.027,12.019,18.028
61075,12.175,18.027,11.892,18.027,12.019,18.028
61570,12.175,18.027,11.892,18.027,12.019,18.028
62093,12.175,18.027,11.892,18.027,12.019,18.028
62591,12.175,18.027,11.892,18.027,12.019,18.028
63104,12.175,18.027,11.892,18.027,12.019,18.028
63625,12.175,18.027,11.892,18.027,12.019,18.028
64139,12.175,18.027,11.892,18.027,12.019,18.028
64652,12.175,18.027,11.892,18.027,12.019,18.028
65160,12.175,18.027,11.892,18.027,12.019,18.028
65671,12.175,18.027,11.892,18.027,12.019,18.028
66160,12.175,18.027,11.892,18.027,12.019,18.028
66693,12.175,18.027,11.892,18.027,12.019,18.028
67183,12.175,18.027,11.892,18.027,12.019,18.028
67711,12.175,18.027,11.892,18.027,12.019,18.028
68206,12.175,18.027,11.892,18.027,12.019,18.028
68725,12.175,18.027,11.892,18.027,12.036,18.028
69237,12.175,18.027,11.892,18.027,12.036,18.028
69776,12.175,18.027,11.892,18.027,12.036,18.028
70274,12.175,18.027,11.892,18.027,12.036,18.028
70793,12.175,18.027,11.892,18.027,12.036,18.028
71294,12.175,18.027,11.892,18.027,12.036,18.028
71801,12.175,18.027,11.892,18.027,12.036,18.028
72299,12.175,18.027,11.892,18.027,12.036,18.028
72817,12.175,18.027,11.892,18.027,12.036,18.028
73325,12.175,18.027,11.892,18.027,12.036,18.028
73876,12.175,18.027,11.892,18.027,12.036,18.028
74395,12.175,18.027,11.892,18.027,12.036,18.028
74890,12.175,18.027,11.892,18.027,12.036,18.028
75416,12.175,18.027,11.892,18.027,12.036,18.028
75912,12.175,18.027,11.892,18.027,12.036,18.028
76429,12.175,18.027,11.892,18.027,12.036,18.028
76937,12.175,18.027,11.892,18.027,12.036,18.028
77458,12.175,18.027,11.892,18.027,12.036,18.028
77958,12.175,18.027,11.892,18.027,12.036,18.028
78468,12.175,18.027,11.892,18.027,12.036,18.028
78983,12.175,18.027,11.892,18.027,12.036,18.028
79510,12.175,18.027,11.892,18.027,12.036,18.028
79994,12.175,18.027,11.892,18.027,12.036,18.028
80520,12.175,18.027,11.892,18.027,12.036,18.028
81033,12.175,18.027,11.892,18.027,12.036,18.028
81553,12.175,18.027,11.892,18.027,12.036,18.028
82062,12.175,18.027,11.892,18.027,12.036,18.028
82600,12.175,18.027,11.892,18.027,12.036,18.028
83128,12.175,18.027,11.892,18.027,12.036,18.028
83657,12.175,18.027,11.892,18.027,12.036,18.028
84188,12.175,18.027,11.892,18.027,12.036,18.028
84679,12.175,18.027,11.892,18.027,12.036,18.028
85214,12.175,18.027,11.892,18.027,12.036,18.028
85738,12.175,18.027,11.892,18.027,12.036,18.028
86227,12.175,18.027,11.892,18.027,12.036,18.028
86749,12.175,18.027,11.892,18.027,12.036,18.028
87245,12.175,18.027,11.892,18.027,12.036,18.028
87764,12.175,18.027,11.892,18.027,12.036,18.028
88259,12.175,18.027,11.892,18.027,12.036,18.028
88783,12.175,18.027,11.892,18.027,12.036,18.028
89281,12.175,18.027,11.909,18.027,12.036,18.028
89805,12.175,18.027,11.909,18.027,12.036,18.028
90300,12.175,18.027,11.909,18.027,12.036,18.028
90818,12.175,18.027,11.909,18.027,12.036,18.028
91329,12.175,18.027,11.909,18.027,12.036,18.028
91854,12.175,18.027,11.909,18.027,12.036,18.028
92346,12.175,18.027,11.909,18.027,12.036,18.028
92866,12.175,18.027,11.909,18.027,12.036,18.028
93376,12.175,18.027,11.909,18.027,12.036,18.028
93933,12.175,18.027,11.909,18.027,12.036,18.028
94430,12.175,18.027,11.909,18.027,12.036,18.028
94938,12.175,18.027,11.909,18.027,12.036,18.028
95439,12.175,18.027,11.909,18.027,12.036,18.028
95970,12.175,18.027,11.909,18.027,12.036,18.028
96460,12.175,18.027,11.909,18.027,12.036,18.028
96994,12.175,18.027,11.909,18.027,12.036,18.028
97477,12.175,18.027,11.909,18.027,12.036,18.028
98003,12.175,18.027,11.909,18.027,12.036,18.028
98497,12.175,18.027,11.909,18.027,12.036,18.028
99015,12.175,18.027,11.909,18.027,12.036,18.028
99512,12.175,18.027,11.909,18.027,12.036,18.011
100039,12.175,18.027,11.909,18.027,12.036,18.028
100534,12.175,18.027,11.909,18.027,12.036,18.028
101065,12.175,18.027,11.909,18.027,12.036,18.028
101565,12.175,18.027,11.909,18.027,12.036,18.011
102083,12.175,18.027,11.909,18.027,12.036,18.011
102585,12.175,18.027,11.909,18.027,12.036,18.028
103112,12.175,18.027,11.909,18.027,12.036,18.028
103619,12.175,18.027,11.909,18.027,12.036,18.011
104164,12.175,18.027,11.909,18.027,12.052,18.028
104702,12.192,18.027,11.909,18.027,12.052,18.011
105213,12.175,18.027,11.909,18.027,12.052,18.028
105739,12.175,18.027,11.909,18.027,12.052,18.028
106238,12.175,18.027,11.909,18.027,12.052,18.028
106755,12.192,18.027,11.909,18.027,12.052,18.028
107288,12.175,18.027,11.909,18.027,12.052,18.028
107852,12.192,18.027,11.909,18.027,12.052,18.011
108413,12.175,18.027,11.909,18.027,12.052,18.028
108978,12.175,18.027,11.909,18.027,12.052,18.011
109516,12.175,18.027,11.909,18.027,12.052,18.011
110063,12.175,18.027,11.909,18.027,12.052,18.028
110583,12.192,18.027,11.909,18.027,12.052,18.011
111108,12.192,18.027,11.909,18.027,12.052,18.028
111691,12.175,18.027,11.909,18.027,12.052,18.011
112240,12.192,18.027,11.909,18.027,12.052,18.028
112762,12.192,18.027,11.909,18.027,12.052,18.028
113299,12.192,18.027,11.909,18.027,12.052,18.028
113808,12.192,18.027,11.909,18.027,12.052,18.011
114312,12.192,18.027,11.909,18.027,12.052,18.011
114863,12.192,18.027,11.909,18.027,12.052,18.028
115386,12.192,18.027,11.909,18.027,12.052,18.028
115944,12.192,18.027,11.909,18.027,12.052,18.028
116529,12.175,18.027,11.909,18.027,12.052,18.028
117064,12.175,18.027,11.909,18.027,12.052,18.011
117567,12.175,18.027,11.909,18.027,12.052,18.028
118087,12.175,18.027,11.909,18.027,12.052,18.028
118578,12.175,18.027,11.909,18.027,12.052,18.028
119168,12.192,18.027,11.909,18.027,12.052,18.028
119660,12.175,18.027,11.909,18.027,12.052,18.011
120195,12.175,18.027,11.909,18.027,12.052,18.011
120725,12.175,18.027,11.909,18.027,12.052,18.011
121229,12.175,18.027,11.909,18.027,12.052,18.011
121742,12.175,18.027,11.909,18.027,12.052,18.011
122242,12.175,18.027,11.909,18.027,12.052,18.011
122768,12.175,18.027,11.909,18.027,12.052,18.011
123282,12.175,18.027,11.909,18.027,12.052,18.011
123781,12.175,18.027,11.909,18.027,12.052,18.011
124298,12.175,18.027,11.909,18.027,12.052,18.011
124790,12.175,18.027,11.909,18.027,12.052,18.011
125328,12.175,18.027,11.909,18.027,12.052,18.011
125821,12.175,18.027,11.909,18.027,12.052,18.011
126345,12.175,18.027,11.909,18.027,12.052,18.011
126853,12.175,18.027,11.909,18.027,12.052,18.011
127378,12.175,18.027,11.909,18.027,12.052,18.011
127906,12.175,18.027,11.909,18.027,12.052,18.011
128404,12.175,18.027,11.909,18.027,12.052,18.011
128939,12.175,18.027,11.909,18.027,12.052,18.011
129474,12.175,18.027,11.909,18.027,12.052,18.011
130001,12.175,18.027,11.909,18.027,12.052,18.011
130495,12.175,18.027,11.909,18.027,12.052,18.011
131025,12.175,18.027,11.909,18.027,12.052,18.011
131527,12.175,18.027,11.909,18.027,12.052,18.011
132048,12.175,18.027,11.909,18.027,12.052,18.011
132537,12.175,18.027,11.909,18.027,12.052,18.011
133072,12.175,18.027,11.909,18.027,12.052,18.011
133563,12.175,18.027,11.909,18.027,12.052,18.011
134085,12.175,18.027,11.909,18.027,12.052,18.011
134585,12.175,18.027,11.909,18.027,12.052,18.011
135102,12.175,18.027,11.909,18.027,12.052,18.011
135599,12.175,18.027,11.909,18.027,12.052,18.011
136115,12.175,18.027,11.909,18.027,12.052,18.011
136609,12.175,18.027,11.909,18.027,12.052,18.011
137131,12.175,18.027,11.909,18.027,12.052,18.011
137624,12.175,18.027,11.909,18.027,12.052,18.011
138144,12.175,18.027,11.909,18.027,12.052,18.011
138633,12.175,18.027,11.909,18.027,12.052,18.011
139170,12.175,18.027,11.909,18.027,12.052,18.011
139721,12.175,18.027,11.909,18.027,12.052,18.011
140218,12.175,18.027,11.909,18.027,12.052,18.011
140742,12.175,18.027,11.909,18.027,12.052,18.011
141250,12.175,18.027,11.909,18.027,12.052,18.011
141783,12.175,18.027,11.909,18.027,12.052,18.011
142282,12.175,18.027,11.909,18.027,12.052,18.011
142806,12.175,18.027,11.909,18.027,12.052,18.011
143302,12.175,18.027,11.909,18.027,12.052,18.011
143828,12.175,18.027,11.909,18.027,12.052,18.011
144326,12.175,18.027,11.909,18.027,12.052,18.011
144851,12.175,18.027,11.909,18.027,12.052,18.011
145343,12.175,18.027,11.909,18.027,12.052,18.011
145861,12.175,18.027,11.909,18.027,12.052,18.011
146374,12.175,18.027,11.909,18.027,12.052,18.011
146889,12.175,18.027,11.909,18.027,12.052,18.011
147377,12.175,18.027,11.909,18.027,12.052,18.011
147903,12.175,18.027,11.909,18.027,12.052,18.011
148401,12.175,18.027,11.909,18.027,12.052,18.011
148931,12.175,18.027,11.909,18.027,12.052,18.011
149493,12.175,18.027,11.909,18.027,12.052,18.011
149999,12.175,18.027,11.909,18.027,12.052,18.011
150510,12.175,18.027,11.909,18.027,12.052,18.011
151008,12.175,18.027,11.909,18.027,12.052,18.011
151534,12.175,18.027,11.909,18.027,12.052,18.011
152030,12.175,18.027,11.909,18.027,12.052,18.011
152550,12.175,18.027,11.909,18.027,12.052,18.011
153063,12.175,18.027,11.909,18.027,12.052,18.011
153575,12.175,18.027,11.909,18.027,12.052,18.011
154095,12.175,18.027,11.925,18.027,12.052,18.011
154587,12.175,18.027,11.909,18.027,12.052,18.011
155107,12.175,18.027,11.925,18.027,12.052,18.011
155604,12.175,18.027,11.909,18.027,12.052,18.011
156124,12.175,18.027,11.909,18.027,12.052,18.011
156609,12.175,18.027,11.909,18.027,12.052,18.011
157144,12.175,18.027,11.925,18.027,12.052,18.011
157632,12.175,18.027,11.909,18.027,12.052,18.011
158138,12.175,18.027,11.925,18.027,12.052,18.011
158629,12.175,18.027,11.909,18.027,12.052,18.011
159153,12.175,18.027,11.925,18.027,12.052,18.011
159682,12.175,18.027,11.925,18.027,12.052,18.011
160208,12.175,18.027,11.925,18.027,12.052,18.011
160734,12.175,18.027,11.925,18.027,12.052,18.011
161232,12.175,18.027,11.925,18.027,12.052,18.011
161763,12.175,18.027,11.925,18.027,12.052,18.011
162267,12.175,18.027,11.925,18.027,12.052,18.011
162807,12.175,18.027,11.925,18.027,12.052,18.011
163308,12.175,18.027,11.925,18.027,12.052,18.011
163828,12.175,18.027,11.925,18.027,12.052,18.011
164317,12.175,18.027,11.925,18.027,12.052,18.011
164843,12.175,18.027,11.925,18.027,12.052,18.011
165352,12.175,18.027,11.925,18.027,12.052,18.011
165865,12.175,18.027,11.925,18.027,12.052,18.011
166364,12.175,18.027,11.925,18.027,12.052,18.011
166888,12.175,18.027,11.925,18.027,12.052,18.011
167395,12.175,18.027,11.925,18.027,12.052,18.011
167905,12.175,18.027,11.925,18.027,12.052,18.011
168398,12.175,18.027,11.925,18.027,12.052,18.011
168918,12.175,18.027,11.925,18.027,12.052,18.011
169415,12.175,18.027,11.925,18.027,12.052,18.011
169975,12.175,18.027,11.925,18.027,12.052,18.011
170498,12.175,18.027,11.925,18.027,12.052,18.011
170996,12.175,18.027,11.925,18.027,12.052,18.011
171516,12.175,18.027,11.925,18.027,12.052,18.011
172020,12.175,18.027,11.925,18.027,12.052,18.011
172539,12.175,18.027,11.925,18.027,12.052,18.011
173049,12.175,18.027,11.925,18.027,12.052,18.011
173561,12.175,18.027,11.925,18.027,12.052,18.011
174085,12.175,18.027,11.925,18.027,12.052,18.011
174586,12.175,18.027,11.925,18.027,12.052,18.011
175107,12.175,18.027,11.925,18.027,12.052,18.011
175607,12.175,18.027,11.925,18.027,12.052,18.011
176140,12.175,18.027,11.925,18.027,12.052,18.011
176630,12.175,18.027,11.925,18.027,12.052,18.011
177156,12.175,18.027,11.925,18.027,12.052,18.011
177651,12.175,18.027,11.925,18.027,12.052,18.011
178166,12.175,18.027,11.925,18.027,12.052,18.011
178660,12.175,18.027,11.925,18.027,12.052,18.011
179186,12.175,18.027,11.925,18.027,12.052,18.011
179710,12.175,18.027,11.925,18.027,12.052,18.011
180240,12.175,18.027,11.925,18.027,12.052,18.011
180743,12.175,18.027,11.925,18.027,12.052,18.011
181268,12.175,18.027,11.925,18.027,12.052,18.011
181758,12.175,18.027,11.925,18.027,12.052,18.011
182282,12.175,18.027,11.925,18.027,12.052,18.011
182770,12.175,18.027,11.925,18.027,12.052,18.011
183300,12.175,18.027,11.925,18.027,12.052,18.011
183787,12.175,18.027,11.925,18.027,12.052,18.011
184313,12.175,18.027,11.925,18.027,12.052,18.011
184814,12.175,18.027,11.925,18.027,12.052,18.011
185347,12.175,18.027,11.925,18.027,12.052,18.011
185845,12.175,18.027,11.925,18.027,12.052,18.011
186368,12.175,18.027,11.925,18.027,12.052,18.011
186870,12.175,18.027,11.925,18.027,12.052,18.011
187387,12.175,18.027,11.925,18.027,12.052,18.011
187888,12.175,18.027,11.925,18.027,12.052,18.011
188414,12.175,18.027,11.925,18.027,12.052,18.011
188923,12.175,18.027,11.925,18.027,12.052,18.011
189446,12.175,18.027,11.925,18.027,12.052,18.011
189993,12.175,18.027,11.925,18.027,12.052,18.011
190494,12.175,18.027,11.925,18.027,12.052,18.011
191017,12.175,18.027,11.925,18.027,12.052,18.011
191515,12.175,18.027,11.925,18.027,12.052,18.011
192035,12.175,18.027,11.925,18.027,12.052,18.011
192522,12.175,18.027,11.925,18.027,12.052,18.011
193053,12.175,18.027,11.925,18.027,12.052,18.011
193553,12.175,18.027,11.925,18.027,12.052,18.011
194064,12.175,18.027,11.925,18.027,12.052,18.011
194594,12.175,18.027,11.925,18.027,12.052,18.011
195092,12.175,18.027,11.925,18.027,12.052,18.011
195604,12.175,18.027,11.925,18.027,12.052,18.011
196094,12.175,18.027,11.925,18.027,12.052,18.011
196622,12.175,18.027,11.925,18.027,12.052,18.011
197125,12.175,18.027,11.925,18.027,12.052,18.011
197657,12.175,18.027,11.925,18.027,12.052,18.011
198150,12.175,18.027,11.925,18.027,12.052,18.011
198679,12.175,18.027,11.925,18.027,12.052,18.011
199179,12.175,18.027,11.925,18.027,12.052,18.011
199736,12.175,18.027,11.925,18.027,12.052,18.011
200225,12.175,18.027,11.925,18.027,12.052,18.011
200745,12.175,18.027,11.925,18.027,12.052,18.011
201256,12.175,18.027,11.925,18.027,12.052,18.011
201779,12.175,18.027,11.925,18.027,12.052,18.011
202307,12.175,18.027,11.925,18.027,12.052,18.011
202791,12.175,18.027,11.925,18.027,12.052,18.011
203311,12.175,18.027,11.925,18.027,12.052,18.011
203811,12.175,18.027,11.925,18.027,12.052,18.011
204331,12.175,18.027,11.925,18.027,12.052,18.011
204840,12.175,18.027,11.925,18.027,12.052,18.011
205378,12.175,18.027,11.925,18.027,12.052,18.011
205879,12.175,18.027,11.925,18.027,12.052,18.011
206398,12.175,18.027,11.925,18.027,12.052,18.011
206895,12.175,18.027,11.925,18.027,12.052,18.011
207434,12.175,18.027,11.925,18.027,12.052,18.011
207940,12.175,18.027,11.925,18.027,12.052,18.011
208456,12.175,18.027,11.925,18.027,12.052,18.011
208960,12.175,18.027,11.925,18.027,12.052,18.011
209493,12.175,18.027,11.925,18.027,12.052,18.011
210052,12.175,18.027,11.925,18.027,12.052,18.011
210549,12.175,18.027,11.925,18.027,12.052,18.011
211078,12.175,18.027,11.925,18.027,12.052,18.011
211570,12.175,18.027,11.925,18.027,12.052,18.011
212098,12.175,18.027,11.925,18.027,12.052,18.011
