18A Test,ZZ Top,ZZ Top,Johnny Cash,Johnny Cash,Run DMC,Run DMC
Time (ms),Voltage1 (V),Current1 (A),Voltage2 (V),Current2 (A),Voltage3 (V),Current3 (A)
592,12.807,18.027,12.754,18.043,12.55,18.028
1176,12.757,18.027,12.688,18.043,12.467,18.028
1769,12.691,18.027,12.621,18.043,12.417,18.028
2356,12.624,18.027,12.555,18.043,12.367,18.028
2886,12.574,18.027,12.505,18.043,12.318,18.028
3465,12.508,18.027,12.456,18.043,12.284,18.028
4040,12.475,18.027,12.389,18.043,12.251,18.028
4620,12.425,18.027,12.34,18.043,12.218,18.028
5211,12.375,18.027,12.29,18.043,12.185,18.028
5742,12.342,18.027,12.257,18.043,12.152,18.028
6319,12.308,18.027,12.224,18.043,12.135,18.028
6885,12.292,18.027,12.19,18.043,12.102,18.028
7478,12.258,18.027,12.157,18.043,12.085,18.028
7962,12.242,18.027,12.141,18.043,12.069,18.028
8517,12.225,18.027,12.124,18.043,12.052,18.028
9073,12.209,18.027,12.108,18.043,12.052,18.028
9630,12.192,18.027,12.091,18.043,12.036,18.028
10153,12.192,18.027,12.074,18.043,12.019,18.028
10678,12.175,18.027,12.058,18.043,12.019,18.028
11230,12.159,18.027,12.058,18.043,12.002,18.028
11709,12.159,18.027,12.041,18.043,12.002,18.028
12266,12.159,18.027,12.041,18.043,12.002,18.028
12810,12.142,18.027,12.025,18.043,11.986,18.028
13312,12.142,18.027,12.025,18.043,11.986,18.028
13858,12.142,18.027,12.025,18.043,11.986,18.028
14380,12.125,18.027,12.025,18.043,11.986,18.028
14882,12.125,18.027,12.025,18.043,11.986,18.028
15400,12.125,18.027,12.008,18.043,11.986,18.028
15882,12.125,18.027,12.008,18.043,11.986,18.028
16405,12.125,18.027,12.025,18.043,11.986,18.028
16894,12.125,18.027,12.025,18.043,11.986,18.028
17405,12.125,18.027,12.025,18.043,11.986,18.028
17905,12.125,18.027,12.025,18.043,11.986,18.028
18464,12.142,18.027,12.025,18.043,12.002,18.028
19016,12.142,18.027,12.025,18.043,12.002,18.028
19546,12.142,18.027,12.041,18.043,12.002,18.028
20063,12.159,18.027,12.041,18.043,12.002,18.028
20588,12.159,18.027,12.041,18.043,12.019,18.028
21120,12.159,18.027,12.041,18.043,12.019,18.028
21636,12.175,18.027,12.058,18.043,12.019,18.028
22136,12.175,18.027,12.058,18.043,12.019,18.028
22697,12.175,18.027,12.058,18.043,12.019,18.028
23197,12.192,18.027,12.058,18.043,12.036,18.028
23719,12.192,18.027,12.058,18.043,12.036,18.028
24237,12.192,18.027,12.058,18.043,12.036,18.028
24772,12.192,18.027,12.074,18.043,12.036,18.028
25279,12.209,18.027,12.074,18.043,12.036,18.028
25772,12.209,18.027,12.074,18.043,12.052,18.028
26304,12.209,18.027,12.074,18.043,12.052,18.028
26825,12.209,18.027,12.074,18.043,12.052,18.028
27373,12.209,18.027,12.074,18.043,12.052,18.028
27898,12.225,18.027,12.091,18.043,12.052,18.028
28396,12.225,18.027,12.091,18.043,12.052,18.028
28903,12.225,18.027,12.091,18.043,12.052,18.028
29393,12.225,18.027,12.091,18.043,12.069,18.028
29916,12.225,18.027,12.091,18.043,12.069,18.028
30412,12.225,18.027,12.091,18.043,12.069,18.028
30971,12.225,18.027,12.091,18.043,12.069,18.028
31470,12.242,18.027,12.091,18.043,12.069,18.028
31990,12.242,18.027,12.108,18.043,12.069,18.028
32514,12.242,18.027,12.108,18.043,12.069,18.028
33017,12.242,18.027,12.108,18.043,12.069,18.028
33536,12.242,18.027,12.108,18.043,12.069,18.028
34038,12.242,18.027,12.108,18.043,12.069,18.028
34555,12.242,18.027,12.108,18.043,12.085,18.028
35055,12.242,18.027,12.108,18.043,12.085,18.028
35573,12.242,18.027,12.108,18.043,12.085,18.028
36061,12.242,18.027,12.108,18.043,12.085,18.028
36612,12.242,18.027,12.108,18.043,12.085,18.028
37115,12.258,18.027,12.108,18.043,12.085,18.028
37639,12.258,18.027,12.124,18.043,12.085,18.028
38142,12.258,18.027,12.124,18.043,12.085,18.028
38659,12.258,18.027,12.124,18.043,12.085,18.028
39161,12.258,18.027,12.124,18.043,12.085,18.028
39685,12.258,18.027,12.124,18.043,12.085,18.028
40194,12.258,18.027,12.124,18.043,12.085,18.028
40727,12.258,18.027,12.124,18.043,12.085,18.028
41248,12.258,18.027,12.124,18.043,12.085,18.028
41731,12.258,18.027,12.124,18.043,12.085,18.028
42241,12.258,18.027,12.124,18.043,12.085,18.028
42738,12.258,18.027,12.124,18.043,12.102,18.028
43275,12.258,18.027,12.124,18.043,12.102,18.028
43768,12.258,18.027,12.124,18.043,12.102,18.028
44296,12.258,18.027,12.124,18.043,12.102,18.028
44801,12.258,18.027,12.124,18.043,12.102,18.028
45329,12.258,18.027,12.124,18.043,12.102,18.028
45812,12.258,18.027,12.124,18.043,12.102,18.028
46372,12.258,18.027,12.124,18.043,12.102,18.028
46880,12.275,18.027,12.124,18.043,12.102,18.028
47415,12.275,18.027,12.124,18.043,12.102,18.028
47935,12.275,18.027,12.124,18.043,12.102,18.028
48443,12.275,18.027,12.141,18.043,12.102,18.028
48976,12.275,18.027,12.141,18.043,12.102,18.028
49459,12.275,18.027,12.141,18.043,12.102,18.028
49979,12.275,18.027,12.141,18.043,12.102,18.028
50476,12.275,18.027,12.141,18.043,12.102,18.028
51020,12.275,18.027,12.141,18.043,12.102,18.028
51542,12.275,18.027,12.141,18.043,12.102,18.028
52038,12.275,18.027,12.141,18.043,12.102,18.028
52565,12.275,18.027,12.141,18.043,12.102,18.028
53071,12.275,18.027,12.141,18.043,12.102,18.028
53591,12.275,18.027,12.141,18.043,12.102,18.028
54080,12.275,18.027,12.141,18.043,12.102,18.028
54609,12.275,18.027,12.141,18.043,12.102,18.028
55117,12.275,18.027,12.141,18.043,12.119,18.028
55636,12.275,18.027,12.141,18.043,12.119,18.028
56164,12.275,18.027,12.141,18.043,12.119,18.028
56695,12.275,18.027,12.141,18.043,12.119,18.028
57190,12.275,18.027,12.141,18.043,12.119,18.028
57717,12.275,18.027,12.141,18.043,12.119,18.028
58206,12.275,18.027,12.141,18.043,12.119,18.028
58725,12.275,18.027,12.141,18.043,12.119,18.028
59223,12.275,18.027,12.141,18.043,12.119,18.028
59742,12.275,18.027,12.141,18.043,12.119,18.028
60224,12.275,18.027,12.141,18.043,12.119,18.028
60737,12.275,18.027,12.141,18.043,12.119,18.028
61272,12.275,18.027,12.141,18.043,12.119,18.028
61853,12.275,18.027,12.141,18.043,12.119,18.028
62374,12.292,18.027,12.141,18.043,12.119,18.028
62885,12.292,18.027,12.141,18.043,12.119,18.028
63405,12.292,18.027,12.141,18.043,12.119,18.028
63932,12.292,18.027,12.141,18.043,12.119,18.028
64430,12.292,18.027,12.141,18.043,12.119,18.028
64962,12.292,18.027,12.141,18.043,12.119,18.028
65467,12.292,18.027,12.141,18.043,12.119,18.028
65984,12.292,18.027,12.141,18.043,12.119,18.028
66480,12.292,18.027,12.141,18.043,12.119,18.028
67018,12.292,18.027,12.141,18.043,12.119,18.028
67512,12.292,18.027,12.141,18.043,12.119,18.028
68043,12.292,18.027,12.141,18.043,12.119,18.028
68546,12.292,18.027,12.141,18.043,12.119,18.028
69074,12.292,18.027,12.141,18.043,12.119,18.028
69575,12.292,18.027,12.141,18.043,12.119,18.028
70096,12.292,18.027,12.141,18.043,12.119,18.028
70585,12.292,18.027,12.141,18.043,12.119,18.028
71109,12.292,18.027,12.141,18.043,12.119,18.028
71594,12.292,18.027,12.141,18.043,12.119,18.028
72154,12.292,18.027,12.141,18.043,12.119,18.028
72688,12.292,18.027,12.141,18.043,12.119,18.028
73192,12.292,18.027,12.141,18.043,12.119,18.028
73717,12.292,18.027,12.141,18.043,12.119,18.028
74220,12.292,18.027,12.141,18.043,12.119,18.028
74738,12.292,18.027,12.141,18.043,12.119,18.028
75249,12.292,18.027,12.141,18.043,12.119,18.028
75770,12.292,18.027,12.141,18.043,12.119,18.028
76273,12.292,18.027,12.157,18.043,12.119,18.028
76795,12.292,18.027,12.157,18.043,12.119,18.028
77290,12.292,18.027,12.157,18.043,12.119,18.028
77816,12.292,18.027,12.157,18.043,12.119,18.028
78317,12.292,18.027,12.157,18.043,12.119,18.028
78841,12.292,18.027,12.157,18.043,12.119,18.028
79328,12.292,18.027,12.157,18.043,12.119,18.028
79853,12.292,18.027,12.157,18.043,12.135,18.028
80362,12.292,18.027,12.157,18.043,12.135,18.028
80896,12.292,18.027,12.157,18.043,12.135,18.028
81419,12.292,18.027,12.157,18.043,12.135,18.028
81948,12.292,18.027,12.157,18.043,12.135,18.028
82476,12.292,18.027,12.157,18.043,12.135,18.028
82994,12.292,18.027,12.157,18.043,12.135,18.028
83525,12.292,18.027,12.157,18.043,12.135,18.028
84051,12.292,18.027,12.157,18.043,12.135,18.028
84549,12.292,18.027,12.157,18.043,12.135,18.028
85074,12.292,18.027,12.157,18.043,12.135,18.028
85578,12.292,18.027,12.157,18.043,12.135,18.028
86103,12.292,18.027,12.157,18.043,12.135,18.028
86592,12.292,18.027,12.157,18.043,12.135,18.028
87123,12.292,18.027,12.157,18.043,12.135,18.028
87623,12.292,18.027,12.157,18.043,12.135,18.028
88153,12.292,18.027,12.157,18.043,12.135,18.028
88647,12.292,18.027,12.157,18.043,12.135,18.028
89169,12.292,18.027,12.157,18.043,12.135,18.028
89647,12.292,18.027,12.157,18.043,12.135,18.028
90171,12.292,18.027,12.157,18.043,12.135,18.028
90681,12.292,18.027,12.157,18.043,12.135,18.028
91215,12.292,18.027,12.157,18.043,12.135,18.028
91774,12.292,18.027,12.157,18.043,12.135,18.028
92274,12.292,18.027,12.157,18.043,12.135,18.028
92798,12.292,18.027,12.157,18.043,12.135,18.028
93295,12.292,18.027,12.157,18.043,12.135,18.028
93814,12.308,18.027,12.157,18.043,12.135,18.028
94340,12.308,18.027,12.157,18.043,12.135,18.028
94879,12.308,18.027,12.157,18.043,12.135,18.028
95406,12.308,18.027,12.157,18.043,12.135,18.028
95904,12.308,18.027,12.157,18.043,12.135,18.028
96428,12.308,18.027,12.157,18.043,12.135,18.028
96933,12.308,18.027,12.157,18.043,12.135,18.028
97460,12.308,18.027,12.157,18.043,12.135,18.028
97945,12.308,18.027,12.157,18.043,12.135,18.028
98473,12.308,18.027,12.157,18.043,12.135,18.028
98982,12.308,18.027,12.157,18.043,12.135,18.028
99507,12.308,18.027,12.157,18.043,12.135,18.028
100016,12.308,18.027,12.157,18.043,12.135,18.028
100546,12.308,18.027,12.157,18.043,12.135,18.028
101078,12.308,18.027,12.157,18.043,12.135,18.028
101570,12.308,18.027,12.157,18.043,12.135,18.028
102097,12.308,18.027,12.157,18.043,12.135,18.028
102594,12.308,18.027,12.157,18.043,12.135,18.028
103128,12.308,18.027,12.157,18.027,12.135,18.028
103624,12.308,18.027,12.157,18.043,12.135,18.028
104183,12.308,18.027,12.157,18.043,12.135,18.028
104711,12.308,18.027,12.157,18.043,12.135,18.028
105209,12.308,18.027,12.157,18.043,12.135,18.028
105731,12.308,18.027,12.157,18.043,12.135,18.028
106216,12.308,18.027,12.157,18.043,12.135,18.028
106748,12.308,18.027,12.157,18.043,12.135,18.028
107277,12.308,18.027,12.157,18.043,12.135,18.028
107816,12.308,18.027,12.157,18.027,12.135,18.028
108358,12.308,18.027,12.157,18.043,12.135,18.028
108854,12.308,18.027,12.157,18.043,12.135,18.028
109369,12.308,18.027,12.157,18.043,12.135,18.028
109861,12.308,18.027,12.157,18.043,12.135,18.028
110390,12.308,18.027,12.157,18.043,12.135,18.028
110912,12.308,18.027,12.157,18.043,12.135,18.028
111433,12.308,18.027,12.157,18.043,12.135,18.028
111934,12.308,18.027,12.157,18.043,12.135,18.028
112458,12.308,18.027,12.157,18.027,12.135,18.028
112953,12.308,18.027,12.157,18.043,12.135,18.028
113473,12.308,18.027,12.157,18.027,12.135,18.028
113971,12.308,18.027,12.141,18.043,12.135,18.028
114522,12.308,18.027,12.157,18.043,12.135,18.028
115063,12.308,18.027,12.157,18.043,12.135,18.028
115551,12.308,18.027,12.141,18.043,12.135,18.028
116074,12.308,18.027,12.141,18.043,12.135,18.028
116579,12.308,18.027,12.141,18.043,12.135,18.028
117097,12.308,18.027,12.141,18.027,12.135,18.028
117603,12.308,18.027,12.141,18.043,12.135,18.028
118126,12.308,18.027,12.141,18.027,12.135,18.028
118629,12.308,18.027,12.141,18.043,12.135,18.028
119152,12.308,18.027,12.141,18.043,12.135,18.028
119653,12.308,18.027,12.141,18.043,12.135,18.028
120181,12.308,18.027,12.141,18.043,12.135,18.028
120686,12.308,18.027,12.141,18.027,12.135,18.028
121213,12.308,18.027,12.141,18.043,12.135,18.028
121713,12.308,18.027,12.141,18.043,12.135,18.028
122220,12.308,18.027,12.141,18.027,12.135,18.028
122720,12.308,18.027,12.141,18.043,12.135,18.028
123262,12.308,18.027,12.141,18.043,12.135,18.028
123766,12.308,18.027,12.141,18.027,12.135,18.028
124316,12.308,18.027,12.141,18.027,12.135,18.028
124844,12.308,18.027,12.141,18.027,12.135,18.028
125343,12.308,18.027,12.141,18.027,12.135,18.028
125873,12.308,18.027,12.141,18.027,12.135,18.028
126372,12.308,18.027,12.141,18.027,12.135,18.028
126908,12.308,18.027,12.141,18.027,12.135,18.028
127404,12.308,18.027,12.141,18.027,12.135,18.028
127928,12.308,18.027,12.141,18.027,12.135,18.028
128426,12.308,18.027,12.141,18.027,12.135,18.028
128936,12.308,18.027,12.141,18.043,12.135,18.028
129432,12.308,18.027,12.141,18.027,12.135,18.028
129958,12.308,18.027,12.141,18.027,12.135,18.028
130458,12.308,18.027,12.141,18.027,12.135,18.028
130993,12.308,18.027,12.141,18.027,12.135,18.028
131490,12.308,18.027,12.141,18.027,12.135,18.028
132011,12.308,18.027,12.141,18.027,12.135,18.028
132508,12.308,18.027,12.141,18.027,12.135,18.028
133018,12.308,18.027,12.141,18.027,12.135,18.028
133522,12.308,18.027,12.141,18.027,12.135,18.028
134045,12.308,18.027,12.141,18.027,12.135,18.028
134571,12.308,18.027,12.141,18.027,12.135,18.028
135099,12.308,18.027,12.141,18.027,12.135,18.028
135622,12.308,18.027,12.141,18.027,12.135,18.028
136117,12.308,18.027,12.141,18.027,12.135,18.028
136648,12.308,18.027,12.141,18.027,12.135,18.028
137149,12.308,18.027,12.141,18.027,12.135,18.028
137670,12.308,18.027,12.141,18.027,12.135,18.028
138177,12.308,18.027,12.141,18.027,12.135,18.028
138713,12.308,18.027,12.141,18.027,12.135,18.028
139216,12.308,18.027,12.141,18.027,12.135,18.028
139742,12.308,18.027,12.141,18.027,12.135,18.028
140245,12.308,18.027,12.141,18.027,12.135,18.028
140764,12.308,18.027,12.141,18.027,12.135,18.028
141246,12.308,18.027,12.141,18.027,12.135,18.028
141781,12.308,18.027,12.141,18.027,12.135,18.028
142277,12.308,18.027,12.141,18.027,12.135,18.028
142814,12.308,18.027,12.141,18.027,12.135,18.028
143303,12.308,18.027,12.141,18.027,12.135,18.028
143827,12.308,18.027,12.141,18.027,12.135,18.028
144324,12.308,18.027,12.141,18.027,12.135,18.028
144883,12.308,18.027,12.141,18.027,12.135,18.028
145413,12.308,18.027,12.141,18.027,12.135,18.028
145914,12.308,18.027,12.141,18.027,12.135,18.028
146446,12.308,18.027,12.141,18.027,12.135,18.028
146957,12.308,18.027,12.141,18.027,12.135,18.028
147484,12.308,18.027,12.141,18.027,12.135,18.028
148011,12.308,18.027,12.141,18.027,12.135,18.028
148507,12.308,18.027,12.141,18.027,12.135,18.028
149028,12.308,18.027,12.141,18.027,12.135,18.028
149528,12.308,18.027,12.141,18.027,12.135,18.028
150051,12.308,18.027,12.141,18.027,12.135,18.028
150547,12.308,18.027,12.141,18.027,12.135,18.028
151086,12.308,18.027,12.141,18.027,12.135,18.028
151581,12.308,18.027,12.141,18.027,12.135,18.028
152102,12.308,18.027,12.141,18.027,12.135,18.028
152611,12.308,18.027,12.141,18.027,12.135,18.028
153138,12.308,18.027,12.141,18.027,12.135,18.028
153652,12.308,18.027,12.141,18.027,12.135,18.028
154156,12.308,18.027,12.141,18.027,12.135,18.028
154719,12.308,18.027,12.141,18.027,12.135,18.028
155230,12.308,18.027,12.141,18.027,12.135,18.028
155747,12.308,18.027,12.141,18.027,12.135,18.028
156239,12.308,18.027,12.141,18.027,12.135,18.028
156765,12.308,18.027,12.141,18.027,12.135,18.028
157262,12.308,18.027,12.141,18.027,12.135,18.028
157783,12.308,18.027,12.141,18.027,12.135,18.028
158278,12.308,18.027,12.141,18.027,12.135,18.028
158813,12.308,18.027,12.141,18.027,12.135,18.028
159339,12.308,18.027,12.141,18.027,12.135,18.028
159837,12.308,18.027,12.141,18.027,12.135,18.028
160372,12.308,18.027,12.141,18.027,12.135,18.028
160866,12.308,18.027,12.141,18.027,12.135,18.028
161394,12.308,18.027,12.141,18.027,12.135,18.028
161894,12.308,18.027,12.141,18.027,12.135,18.028
162423,12.308,18.027,12.141,18.027,12.135,18.028
162924,12.308,18.027,12.141,18.027,12.135,18.028
163440,12.308,18.027,12.141,18.027,12.135,18.028
163934,12.308,18.027,12.141,18.027,12.135,18.028
164463,12.308,18.027,12.141,18.027,12.135,18.028
164983,12.308,18.027,12.141,18.027,12.135,18.028
165513,12.308,18.027,12.141,18.027,12.135,18.028
166031,12.308,18.027,12.141,18.027,12.135,18.028
166523,12.308,18.027,12.141,18.027,12.135,18.028
167049,12.308,18.027,12.141,18.027,12.135,18.028
167549,12.308,18.027,12.141,18.027,12.135,18.028
168073,12.308,18.027,12.141,18.027,12.135,18.028
168577,12.308,18.027,12.141,18.027,12.135,18.028
169118,12.308,18.027,12.141,18.027,12.135,18.028
169614,12.308,18.027,12.141,18.027,12.135,18.028
170142,12.308,18.027,12.141,18.027,12.135,18.028
170641,12.308,18.027,12.141,18.027,12.135,18.028
171175,12.308,18.027,12.141,18.027,12.135,18.028
171672,12.308,18.027,12.141,18.027,12.135,18.028
172198,12.308,18.027,12.141,18.027,12.135,18.028
172681,12.308,18.027,12.141,18.027,12.135,18.028
173194,12.308,18.027,12.124,18.027,12.135,18.028
173694,12.308,18.027,12.124,18.027,12.135,18.028
174204,12.308,18.027,12.124,18.027,12.135,18.028
174703,12.308,18.027,12.124,18.027,12.135,18.028
175278,12.308,18.027,12.124,18.027,12.135,18.028
175805,12.308,18.027,12.124,18.027,12.135,18.028
176299,12.308,18.027,12.124,18.027,12.135,18.028
176832,12.308,18.027,12.124,18.027,12.135,18.028
177332,12.308,18.027,12.124,18.027,12.135,18.028
177862,12.308,18.027,12.124,18.027,12.135,18.028
178362,12.308,18.027,12.124,18.027,12.135,18.028
178877,12.308,18.027,12.124,18.027,12.135,18.028
179369,12.308,18.027,12.124,18.027,12.135,18.028
179895,12.308,18.027,12.124,18.027,12.135,18.028
180390,12.308,18.027,12.124,18.027,12.135,18.028
180915,12.308,18.027,12.124,18.027,12.135,18.028
181410,12.308,18.027,12.124,18.027,12.135,18.028
181937,12.308,18.027,12.124,18.027,12.135,18.028
182440,12.308,18.027,12.124,18.027,12.135,18.028
182968,12.308,18.027,12.124,18.027,12.135,18.028
183473,12.308,18.027,12.124,18.027,12.135,18.028
183990,12.308,18.027,12.124,18.027,12.135,18.028
184495,12.308,18.027,12.124,18.027,12.135,18.028
185044,12.308,18.027,12.124,18.027,12.135,18.028
185524,12.308,18.027,12.124,18.027,12.135,18.028
186041,12.308,18.027,12.124,18.027,12.135,18.028
186573,12.308,18.027,12.124,18.027,12.135,18.028
187090,12.308,18.027,12.124,18.027,12.135,18.028
187628,12.308,18.027,12.124,18.027,12.135,18.028
188126,12.308,18.027,12.124,18.027,12.135,18.028
188648,12.308,18.027,12.124,18.027,12.135,18.028
189135,12.308,18.027,12.124,18.027,12.135,18.028
189649,12.308,18.027,12.124,18.027,12.135,18.028
190161,12.308,18.027,12.124,18.027,12.135,18.028
190696,12.308,18.027,12.124,18.027,12.135,18.028
191240,12.308,18.027,12.124,18.027,12.135,18.028
191727,12.308,18.027,12.124,18.027,12.135,18.028
192251,12.308,18.027,12.124,18.027,12.135,18.028
192755,12.308,18.027,12.124,18.027,12.135,18.028
193272,12.308,18.027,12.124,18.027,12.135,18.028
193762,12.308,18.027,12.124,18.027,12.135,18.028
194282,12.308,18.027,12.124,18.027,12.135,18.028
194785,12.308,18.027,12.124,18.027,12.135,18.028
195334,12.308,18.027,12.124,18.027,12.135,18.028
195851,12.308,18.027,12.124,18.027,12.135,18.028
196351,12.308,18.027,12.124,18.027,12.135,18.028
196890,12.308,18.027,12.124,18.027,12.135,18.028
197390,12.308,18.027,12.124,18.027,12.135,18.028
197909,12.308,18.027,12.124,18.027,12.135,18.028
198425,12.308,18.027,12.124,18.027,12.135,18.028
198976,12.308,18.027,12.124,18.027,12.135,18.028
199491,12.308,18.027,12.124,18.027,12.135,18.028
199977,12.308,18.027,12.124,18.027,12.135,18.028
200503,12.308,18.027,12.124,18.027,12.135,18.028
200996,12.308,18.027,12.124,18.027,12.135,18.028
201518,12.308,18.027,12.124,18.027,12.135,18.028
202023,12.308,18.027,12.124,18.027,12.135,18.028
202552,12.308,18.027,12.124,18.027,12.135,18.028
203058,12.308,18.027,12.124,18.027,12.135,18.028
203595,12.308,18.027,12.124,18.027,12.135,18.028
204089,12.308,18.027,12.124,18.027,12.135,18.028
204624,12.308,18.027,12.124,18.027,12.135,18.028
205143,12.308,18.027,12.124,18.027,12.135,18.028
205666,12.308,18.027,12.124,18.027,12.135,18.028
206157,12.308,18.027,12.124,18.027,12.135,18.028
206674,12.308,18.027,12.124,18.027,12.135,18.028
207179,12.308,18.027,12.124,18.027,12.135,18.028
207708,12.308,18.027,12.124,18.027,12.135,18.028
208210,12.308,18.027,12.124,18.027,12.135,18.028
208732,12.308,18.027,12.124,18.027,12.135,18.028
209230,12.308,18.027,12.124,18.027,12.135,18.028
209755,12.308,18.027,12.124,18.027,12.135,18.028
210251,12.308,18.027,12.124,18.027,12.135,18.028
210779,12.308,18.027,12.124,18.027,12.135,18.028
211274,12.308,18.027,12.124,18.027,12.135,18.028
211805,12.308,18.027,12.124,18.027,12.135,18.028
